emg;t
748;0
747;1
748;2
748;3
748;4
748;5
748;6
748;7
748;8
747;9
748;10
748;11
748;12
747;13
748;14
748;15
747;16
748;17
748;18
747;19
748;20
747;21
747;22
747;23
747;24
747;25
747;26
747;27
747;28
747;29
747;30
747;31
748;32
747;33
747;34
748;35
748;36
747;37
747;38
748;39
747;40
747;41
747;42
747;43
748;44
748;45
748;46
747;47
747;48
747;49
747;50
747;51
747;52
747;53
747;54
747;55
747;56
747;57
747;58
747;59
747;60
747;61
747;62
747;63
747;64
747;65
747;66
747;67
747;68
747;69
747;70
747;71
747;72
747;73
747;74
747;75
747;76
747;77
747;78
747;79
747;80
747;81
747;82
747;83
747;84
747;85
747;86
747;87
747;88
747;89
747;90
747;91
747;92
747;93
747;94
747;95
747;96
747;97
748;98
747;99
747;100
747;101
747;102
747;103
747;104
748;105
747;106
747;107
747;108
747;109
747;110
747;111
747;112
747;113
747;114
747;115
747;116
747;117
747;118
747;119
747;120
747;121
747;122
747;123
747;124
747;125
747;126
747;127
747;128
747;129
747;130
747;131
747;132
747;133
747;134
747;135
747;136
747;137
747;138
747;139
747;140
747;141
747;142
748;143
747;144
747;145
747;146
747;147
747;148
747;149
747;150
748;151
747;152
748;153
747;154
747;155
747;156
747;157
747;158
747;159
748;160
747;161
747;162
748;163
748;164
747;165
747;166
747;167
747;168
747;169
747;170
747;171
747;172
748;173
747;174
747;175
747;176
747;177
747;178
747;179
747;180
747;181
747;182
747;183
747;184
747;185
747;186
747;187
747;188
747;189
747;190
747;191
747;192
747;193
747;194
747;195
747;196
747;197
747;198
747;199
748;200
747;201
747;202
748;203
748;204
747;205
747;206
747;207
748;208
747;209
748;210
748;211
748;212
748;213
747;214
748;215
748;216
747;217
748;218
747;219
748;220
748;221
747;222
748;223
748;224
748;225
747;226
748;227
748;228
747;229
747;230
747;231
747;232
747;233
747;234
747;235
747;236
747;237
747;238
747;239
747;240
747;241
747;242
747;243
748;244
748;245
747;246
747;247
747;248
748;249
747;250
747;251
747;252
748;253
748;254
747;255
748;256
747;257
747;258
748;259
748;260
748;261
748;262
748;263
748;264
748;265
748;266
748;267
748;268
748;269
747;270
747;271
748;272
747;273
748;274
748;275
748;276
748;277
748;278
748;279
748;280
748;281
748;282
748;283
748;284
748;285
747;286
747;287
748;288
748;289
748;290
747;291
748;292
748;293
747;294
747;295
747;296
748;297
748;298
747;299
748;300
748;301
747;302
747;303
747;304
747;305
747;306
747;307
748;308
747;309
748;310
747;311
747;312
747;313
747;314
748;315
748;316
747;317
748;318
748;319
748;320
747;321
748;322
747;323
747;324
748;325
748;326
748;327
748;328
748;329
748;330
748;331
748;332
747;333
747;334
747;335
748;336
748;337
747;338
747;339
748;340
747;341
747;342
747;343
747;344
747;345
747;346
747;347
747;348
747;349
747;350
747;351
747;352
747;353
747;354
747;355
747;356
747;357
747;358
747;359
747;360
747;361
747;362
747;363
747;364
747;365
747;366
747;367
747;368
747;369
747;370
747;371
747;372
747;373
747;374
747;375
747;376
747;377
747;378
747;379
748;380
747;381
747;382
747;383
747;384
747;385
747;386
747;387
747;388
747;389
747;390
747;391
747;392
747;393
747;394
747;395
747;396
747;397
747;398
747;399
747;400
747;401
747;402
747;403
747;404
747;405
747;406
747;407
747;408
747;409
747;410
747;411
747;412
747;413
747;414
747;415
747;416
747;417
747;418
747;419
747;420
747;421
747;422
747;423
747;424
747;425
747;426
747;427
747;428
747;429
747;430
747;431
747;432
747;433
747;434
747;435
747;436
747;437
747;438
747;439
747;440
747;441
747;442
746;443
747;444
747;445
747;446
747;447
747;448
747;449
747;450
747;451
746;452
746;453
746;454
746;455
746;456
746;457
746;458
746;459
746;460
746;461
746;462
746;463
746;464
746;465
746;466
746;467
746;468
746;469
746;470
746;471
746;472
746;473
746;474
746;475
746;476
746;477
746;478
746;479
746;480
746;481
746;482
746;483
746;484
746;485
746;486
746;487
746;488
746;489
746;490
746;491
746;492
746;493
746;494
746;495
746;496
746;497
746;498
746;499
746;500
746;501
746;502
746;503
746;504
746;505
746;506
746;507
746;508
746;509
746;510
746;511
746;512
746;513
746;514
746;515
746;516
746;517
746;518
746;519
746;520
746;521
746;522
746;523
746;524
746;525
746;526
746;527
746;528
746;529
746;530
746;531
746;532
746;533
746;534
746;535
746;536
746;537
746;538
746;539
746;540
746;541
746;542
746;543
746;544
746;545
746;546
746;547
746;548
746;549
746;550
746;551
746;552
746;553
746;554
746;555
746;556
746;557
746;558
746;559
746;560
747;561
746;562
746;563
746;564
746;565
746;566
746;567
746;568
746;569
746;570
746;571
746;572
746;573
746;574
746;575
746;576
746;577
746;578
746;579
746;580
746;581
747;582
746;583
746;584
746;585
746;586
746;587
746;588
746;589
746;590
746;591
746;592
746;593
746;594
746;595
746;596
746;597
747;598
747;599
746;600
747;601
747;602
747;603
746;604
747;605
747;606
746;607
747;608
747;609
747;610
747;611
747;612
747;613
747;614
746;615
746;616
747;617
747;618
747;619
746;620
747;621
747;622
747;623
746;624
747;625
747;626
746;627
747;628
746;629
746;630
746;631
747;632
746;633
746;634
746;635
746;636
746;637
746;638
746;639
746;640
746;641
746;642
746;643
746;644
746;645
746;646
746;647
746;648
747;649
747;650
746;651
746;652
746;653
747;654
747;655
747;656
747;657
747;658
746;659
747;660
746;661
747;662
747;663
747;664
746;665
747;666
747;667
747;668
747;669
747;670
747;671
747;672
747;673
747;674
747;675
747;676
747;677
746;678
747;679
746;680
746;681
746;682
747;683
746;684
747;685
746;686
747;687
746;688
746;689
746;690
747;691
746;692
746;693
747;694
747;695
747;696
747;697
746;698
746;699
746;700
746;701
746;702
747;703
746;704
746;705
747;706
747;707
747;708
746;709
747;710
747;711
746;712
747;713
747;714
747;715
747;716
747;717
746;718
747;719
747;720
747;721
747;722
747;723
747;724
747;725
747;726
747;727
747;728
747;729
747;730
747;731
747;732
747;733
747;734
747;735
746;736
747;737
747;738
746;739
747;740
746;741
746;742
747;743
747;744
746;745
747;746
747;747
746;748
746;749
746;750
747;751
746;752
747;753
746;754
747;755
747;756
746;757
746;758
746;759
746;760
747;761
747;762
747;763
747;764
747;765
747;766
747;767
747;768
747;769
747;770
747;771
747;772
747;773
747;774
747;775
747;776
747;777
747;778
747;779
747;780
747;781
747;782
747;783
747;784
747;785
747;786
747;787
747;788
747;789
747;790
747;791
747;792
747;793
747;794
746;795
747;796
747;797
747;798
747;799
747;800
747;801
747;802
747;803
747;804
747;805
747;806
746;807
747;808
747;809
747;810
746;811
747;812
747;813
747;814
747;815
747;816
746;817
747;818
747;819
747;820
747;821
747;822
747;823
747;824
747;825
747;826
747;827
747;828
747;829
747;830
747;831
747;832
747;833
747;834
747;835
747;836
747;837
747;838
747;839
747;840
747;841
747;842
747;843
747;844
747;845
747;846
747;847
747;848
747;849
747;850
747;851
746;852
747;853
747;854
747;855
747;856
747;857
746;858
747;859
747;860
747;861
746;862
746;863
747;864
747;865
747;866
747;867
747;868
747;869
747;870
747;871
747;872
747;873
747;874
747;875
747;876
747;877
747;878
747;879
747;880
747;881
747;882
747;883
747;884
747;885
747;886
747;887
747;888
747;889
747;890
747;891
747;892
747;893
747;894
747;895
747;896
747;897
747;898
747;899
747;900
747;901
747;902
747;903
746;904
746;905
747;906
746;907
746;908
747;909
746;910
746;911
746;912
746;913
746;914
746;915
746;916
747;917
746;918
747;919
746;920
747;921
746;922
746;923
746;924
746;925
747;926
746;927
746;928
746;929
747;930
746;931
747;932
747;933
747;934
747;935
747;936
747;937
747;938
747;939
746;940
747;941
747;942
747;943
747;944
747;945
747;946
747;947
747;948
747;949
747;950
747;951
747;952
747;953
746;954
747;955
747;956
747;957
747;958
746;959
747;960
747;961
746;962
747;963
746;964
746;965
747;966
746;967
746;968
746;969
747;970
746;971
746;972
746;973
746;974
746;975
746;976
747;977
747;978
746;979
746;980
747;981
747;982
747;983
746;984
747;985
747;986
746;987
747;988
747;989
747;990
746;991
747;992
747;993
747;994
747;995
747;996
747;997
747;998
747;999
747;1000
747;1001
747;1002
747;1003
747;1004
747;1005
747;1006
747;1007
747;1008
747;1009
747;1010
747;1011
747;1012
747;1013
747;1014
747;1015
747;1016
747;1017
747;1018
747;1019
747;1020
747;1021
747;1022
747;1023
747;1024
747;1025
747;1026
747;1027
747;1028
747;1029
747;1030
747;1031
747;1032
747;1033
747;1034
747;1035
747;1036
747;1037
747;1038
747;1039
747;1040
747;1041
747;1042
747;1043
747;1044
747;1045
747;1046
747;1047
747;1048
747;1049
747;1050
747;1051
747;1052
747;1053
747;1054
747;1055
747;1056
748;1057
747;1058
747;1059
748;1060
748;1061
747;1062
747;1063
747;1064
748;1065
748;1066
748;1067
747;1068
748;1069
747;1070
748;1071
748;1072
748;1073
748;1074
748;1075
748;1076
747;1077
748;1078
748;1079
748;1080
748;1081
748;1082
748;1083
748;1084
747;1085
748;1086
748;1087
748;1088
747;1089
747;1090
748;1091
747;1092
747;1093
748;1094
747;1095
747;1096
748;1097
748;1098
747;1099
748;1100
747;1101
747;1102
748;1103
748;1104
748;1105
748;1106
748;1107
748;1108
748;1109
748;1110
748;1111
748;1112
748;1113
748;1114
748;1115
748;1116
748;1117
748;1118
748;1119
748;1120
748;1121
748;1122
748;1123
748;1124
748;1125
748;1126
748;1127
748;1128
748;1129
748;1130
748;1131
748;1132
748;1133
748;1134
748;1135
747;1136
748;1137
748;1138
748;1139
748;1140
747;1141
748;1142
748;1143
748;1144
747;1145
747;1146
748;1147
748;1148
748;1149
748;1150
748;1151
747;1152
748;1153
747;1154
748;1155
748;1156
747;1157
748;1158
748;1159
748;1160
748;1161
748;1162
748;1163
748;1164
748;1165
748;1166
748;1167
748;1168
748;1169
748;1170
748;1171
748;1172
748;1173
748;1174
748;1175
748;1176
748;1177
748;1178
748;1179
748;1180
748;1181
748;1182
748;1183
748;1184
748;1185
748;1186
748;1187
748;1188
748;1189
748;1190
748;1191
748;1192
748;1193
748;1194
748;1195
748;1196
748;1197
748;1198
748;1199
748;1200
748;1201
748;1202
747;1203
748;1204
748;1205
748;1206
748;1207
748;1208
748;1209
748;1210
748;1211
748;1212
748;1213
748;1214
748;1215
748;1216
747;1217
748;1218
748;1219
748;1220
748;1221
748;1222
748;1223
748;1224
748;1225
748;1226
748;1227
748;1228
748;1229
748;1230
748;1231
748;1232
748;1233
748;1234
748;1235
748;1236
748;1237
748;1238
748;1239
748;1240
748;1241
748;1242
748;1243
748;1244
748;1245
748;1246
748;1247
748;1248
748;1249
747;1250
748;1251
747;1252
748;1253
747;1254
747;1255
747;1256
748;1257
748;1258
748;1259
747;1260
748;1261
747;1262
747;1263
747;1264
747;1265
748;1266
747;1267
747;1268
747;1269
747;1270
747;1271
747;1272
747;1273
747;1274
747;1275
748;1276
747;1277
747;1278
748;1279
748;1280
747;1281
747;1282
748;1283
748;1284
747;1285
747;1286
748;1287
747;1288
748;1289
747;1290
747;1291
747;1292
747;1293
747;1294
747;1295
748;1296
747;1297
747;1298
747;1299
747;1300
747;1301
747;1302
747;1303
747;1304
747;1305
747;1306
747;1307
747;1308
747;1309
747;1310
747;1311
747;1312
747;1313
747;1314
747;1315
747;1316
747;1317
747;1318
747;1319
747;1320
747;1321
747;1322
747;1323
747;1324
747;1325
747;1326
747;1327
747;1328
747;1329
747;1330
747;1331
747;1332
747;1333
747;1334
747;1335
747;1336
747;1337
747;1338
747;1339
747;1340
747;1341
747;1342
747;1343
747;1344
747;1345
747;1346
747;1347
747;1348
747;1349
747;1350
747;1351
747;1352
747;1353
747;1354
747;1355
747;1356
747;1357
747;1358
747;1359
747;1360
747;1361
747;1362
747;1363
747;1364
747;1365
747;1366
747;1367
747;1368
747;1369
747;1370
747;1371
747;1372
747;1373
747;1374
747;1375
747;1376
747;1377
747;1378
747;1379
747;1380
747;1381
747;1382
747;1383
747;1384
747;1385
747;1386
747;1387
747;1388
747;1389
747;1390
747;1391
747;1392
747;1393
747;1394
747;1395
747;1396
747;1397
747;1398
747;1399
747;1400
747;1401
747;1402
747;1403
747;1404
747;1405
747;1406
747;1407
747;1408
747;1409
747;1410
747;1411
747;1412
747;1413
747;1414
747;1415
747;1416
747;1417
747;1418
747;1419
747;1420
747;1421
747;1422
747;1423
747;1424
747;1425
747;1426
747;1427
747;1428
747;1429
747;1430
747;1431
747;1432
747;1433
747;1434
747;1435
747;1436
747;1437
747;1438
747;1439
747;1440
747;1441
747;1442
747;1443
747;1444
747;1445
747;1446
747;1447
747;1448
747;1449
747;1450
748;1451
747;1452
747;1453
747;1454
747;1455
747;1456
747;1457
747;1458
747;1459
747;1460
747;1461
747;1462
747;1463
747;1464
747;1465
747;1466
747;1467
747;1468
747;1469
747;1470
747;1471
747;1472
747;1473
747;1474
747;1475
747;1476
747;1477
747;1478
747;1479
747;1480
747;1481
747;1482
747;1483
747;1484
747;1485
747;1486
747;1487
747;1488
747;1489
747;1490
747;1491
747;1492
747;1493
747;1494
747;1495
747;1496
747;1497
747;1498
747;1499
747;1500
747;1501
747;1502
747;1503
747;1504
747;1505
747;1506
747;1507
747;1508
747;1509
748;1510
747;1511
747;1512
748;1513
748;1514
748;1515
748;1516
748;1517
747;1518
748;1519
747;1520
747;1521
747;1522
747;1523
747;1524
748;1525
748;1526
747;1527
747;1528
747;1529
747;1530
747;1531
747;1532
747;1533
747;1534
747;1535
747;1536
747;1537
747;1538
747;1539
747;1540
747;1541
747;1542
747;1543
747;1544
747;1545
747;1546
747;1547
748;1548
747;1549
747;1550
747;1551
747;1552
747;1553
747;1554
747;1555
747;1556
747;1557
747;1558
747;1559
747;1560
748;1561
747;1562
748;1563
747;1564
747;1565
747;1566
747;1567
748;1568
747;1569
748;1570
747;1571
747;1572
747;1573
747;1574
747;1575
747;1576
748;1577
747;1578
747;1579
747;1580
747;1581
747;1582
747;1583
747;1584
747;1585
747;1586
747;1587
747;1588
747;1589
747;1590
747;1591
747;1592
747;1593
747;1594
747;1595
747;1596
747;1597
747;1598
747;1599
747;1600
747;1601
747;1602
747;1603
747;1604
747;1605
747;1606
747;1607
747;1608
747;1609
747;1610
747;1611
747;1612
747;1613
747;1614
747;1615
747;1616
747;1617
747;1618
747;1619
747;1620
747;1621
747;1622
747;1623
748;1624
747;1625
748;1626
748;1627
748;1628
747;1629
748;1630
747;1631
747;1632
747;1633
747;1634
748;1635
747;1636
747;1637
748;1638
748;1639
747;1640
747;1641
748;1642
747;1643
747;1644
747;1645
748;1646
747;1647
747;1648
747;1649
747;1650
747;1651
747;1652
748;1653
747;1654
747;1655
747;1656
747;1657
747;1658
747;1659
747;1660
747;1661
747;1662
747;1663
747;1664
747;1665
747;1666
747;1667
747;1668
748;1669
747;1670
747;1671
748;1672
747;1673
748;1674
747;1675
747;1676
748;1677
747;1678
748;1679
747;1680
748;1681
748;1682
748;1683
748;1684
748;1685
748;1686
748;1687
748;1688
748;1689
747;1690
747;1691
748;1692
748;1693
748;1694
748;1695
748;1696
748;1697
747;1698
748;1699
747;1700
747;1701
747;1702
748;1703
748;1704
748;1705
747;1706
747;1707
747;1708
747;1709
747;1710
748;1711
747;1712
747;1713
747;1714
748;1715
747;1716
747;1717
748;1718
747;1719
747;1720
747;1721
747;1722
748;1723
747;1724
747;1725
747;1726
748;1727
748;1728
748;1729
748;1730
747;1731
748;1732
747;1733
748;1734
748;1735
748;1736
748;1737
748;1738
748;1739
748;1740
748;1741
748;1742
747;1743
748;1744
748;1745
748;1746
748;1747
748;1748
748;1749
748;1750
748;1751
748;1752
748;1753
748;1754
748;1755
747;1756
747;1757
748;1758
748;1759
747;1760
747;1761
747;1762
747;1763
747;1764
748;1765
747;1766
747;1767
747;1768
748;1769
747;1770
747;1771
747;1772
747;1773
747;1774
747;1775
747;1776
747;1777
747;1778
747;1779
747;1780
748;1781
747;1782
747;1783
748;1784
748;1785
748;1786
747;1787
748;1788
747;1789
748;1790
748;1791
748;1792
748;1793
748;1794
748;1795
748;1796
748;1797
748;1798
748;1799
748;1800
748;1801
748;1802
748;1803
748;1804
748;1805
748;1806
748;1807
748;1808
748;1809
748;1810
748;1811
748;1812
748;1813
748;1814
748;1815
747;1816
748;1817
748;1818
747;1819
748;1820
748;1821
748;1822
747;1823
748;1824
748;1825
748;1826
747;1827
748;1828
747;1829
748;1830
748;1831
748;1832
748;1833
748;1834
748;1835
748;1836
748;1837
748;1838
748;1839
748;1840
748;1841
748;1842
748;1843
748;1844
748;1845
748;1846
748;1847
748;1848
748;1849
748;1850
748;1851
748;1852
748;1853
748;1854
748;1855
748;1856
748;1857
748;1858
748;1859
748;1860
748;1861
748;1862
748;1863
748;1864
748;1865
748;1866
748;1867
748;1868
748;1869
748;1870
748;1871
748;1872
748;1873
748;1874
748;1875
748;1876
748;1877
748;1878
748;1879
748;1880
748;1881
748;1882
748;1883
748;1884
748;1885
748;1886
748;1887
748;1888
748;1889
748;1890
748;1891
748;1892
748;1893
748;1894
748;1895
748;1896
748;1897
748;1898
748;1899
748;1900
748;1901
748;1902
748;1903
748;1904
748;1905
748;1906
748;1907
748;1908
748;1909
748;1910
748;1911
748;1912
748;1913
748;1914
748;1915
748;1916
748;1917
748;1918
748;1919
748;1920
748;1921
748;1922
747;1923
748;1924
748;1925
748;1926
748;1927
747;1928
748;1929
748;1930
747;1931
747;1932
747;1933
747;1934
747;1935
747;1936
747;1937
747;1938
747;1939
747;1940
747;1941
747;1942
747;1943
747;1944
748;1945
747;1946
747;1947
747;1948
747;1949
747;1950
747;1951
747;1952
747;1953
747;1954
747;1955
747;1956
747;1957
748;1958
747;1959
747;1960
747;1961
747;1962
747;1963
747;1964
747;1965
747;1966
747;1967
747;1968
747;1969
747;1970
747;1971
747;1972
747;1973
747;1974
747;1975
747;1976
747;1977
747;1978
747;1979
747;1980
747;1981
747;1982
747;1983
747;1984
747;1985
747;1986
747;1987
747;1988
747;1989
747;1990
747;1991
747;1992
747;1993
747;1994
747;1995
747;1996
747;1997
747;1998
747;1999
747;2000
747;2001
747;2002
747;2003
747;2004
747;2005
747;2006
747;2007
747;2008
747;2009
747;2010
747;2011
747;2012
747;2013
747;2014
747;2015
747;2016
747;2017
747;2018
747;2019
747;2020
747;2021
747;2022
747;2023
747;2024
747;2025
747;2026
747;2027
747;2028
747;2029
747;2030
747;2031
747;2032
747;2033
747;2034
747;2035
747;2036
747;2037
747;2038
747;2039
747;2040
747;2041
747;2042
747;2043
747;2044
747;2045
747;2046
747;2047
747;2048
747;2049
747;2050
747;2051
747;2052
747;2053
747;2054
747;2055
747;2056
747;2057
747;2058
747;2059
747;2060
747;2061
747;2062
747;2063
747;2064
747;2065
747;2066
747;2067
747;2068
747;2069
747;2070
747;2071
747;2072
747;2073
747;2074
747;2075
747;2076
747;2077
747;2078
747;2079
747;2080
747;2081
747;2082
747;2083
747;2084
747;2085
747;2086
747;2087
747;2088
747;2089
747;2090
747;2091
747;2092
747;2093
747;2094
747;2095
747;2096
747;2097
747;2098
747;2099
747;2100
747;2101
747;2102
747;2103
747;2104
747;2105
747;2106
747;2107
747;2108
747;2109
747;2110
747;2111
747;2112
747;2113
747;2114
746;2115
747;2116
747;2117
747;2118
747;2119
747;2120
747;2121
747;2122
747;2123
747;2124
747;2125
747;2126
747;2127
747;2128
747;2129
747;2130
747;2131
747;2132
747;2133
747;2134
747;2135
747;2136
747;2137
747;2138
747;2139
747;2140
747;2141
747;2142
747;2143
747;2144
747;2145
747;2146
747;2147
747;2148
746;2149
747;2150
746;2151
746;2152
747;2153
746;2154
746;2155
746;2156
746;2157
746;2158
746;2159
746;2160
747;2161
746;2162
746;2163
746;2164
746;2165
746;2166
746;2167
746;2168
746;2169
746;2170
747;2171
746;2172
746;2173
746;2174
747;2175
747;2176
746;2177
747;2178
746;2179
746;2180
746;2181
747;2182
747;2183
746;2184
746;2185
746;2186
747;2187
746;2188
747;2189
746;2190
746;2191
747;2192
746;2193
747;2194
746;2195
747;2196
747;2197
747;2198
746;2199
747;2200
747;2201
746;2202
746;2203
746;2204
746;2205
746;2206
746;2207
746;2208
746;2209
746;2210
746;2211
746;2212
746;2213
746;2214
746;2215
746;2216
746;2217
746;2218
746;2219
746;2220
746;2221
746;2222
746;2223
746;2224
746;2225
746;2226
746;2227
746;2228
746;2229
746;2230
746;2231
746;2232
746;2233
746;2234
746;2235
746;2236
746;2237
746;2238
746;2239
746;2240
746;2241
746;2242
746;2243
746;2244
746;2245
746;2246
746;2247
746;2248
746;2249
746;2250
746;2251
746;2252
746;2253
746;2254
746;2255
746;2256
746;2257
746;2258
746;2259
746;2260
746;2261
746;2262
746;2263
746;2264
746;2265
746;2266
746;2267
746;2268
746;2269
746;2270
746;2271
746;2272
746;2273
746;2274
746;2275
746;2276
746;2277
746;2278
746;2279
746;2280
746;2281
746;2282
746;2283
746;2284
746;2285
746;2286
746;2287
746;2288
746;2289
746;2290
746;2291
746;2292
746;2293
746;2294
746;2295
746;2296
746;2297
746;2298
746;2299
746;2300
746;2301
746;2302
746;2303
746;2304
746;2305
746;2306
746;2307
746;2308
746;2309
746;2310
746;2311
746;2312
746;2313
746;2314
746;2315
746;2316
746;2317
746;2318
746;2319
746;2320
746;2321
746;2322
746;2323
746;2324
746;2325
746;2326
746;2327
746;2328
746;2329
746;2330
746;2331
746;2332
746;2333
746;2334
746;2335
746;2336
746;2337
746;2338
746;2339
746;2340
746;2341
746;2342
746;2343
746;2344
746;2345
746;2346
746;2347
746;2348
746;2349
746;2350
746;2351
746;2352
746;2353
746;2354
746;2355
746;2356
746;2357
746;2358
746;2359
746;2360
746;2361
746;2362
746;2363
746;2364
746;2365
746;2366
746;2367
746;2368
746;2369
746;2370
746;2371
746;2372
746;2373
746;2374
746;2375
746;2376
746;2377
746;2378
746;2379
746;2380
746;2381
746;2382
746;2383
746;2384
745;2385
746;2386
746;2387
746;2388
746;2389
745;2390
745;2391
745;2392
746;2393
746;2394
746;2395
746;2396
746;2397
745;2398
746;2399
746;2400
746;2401
746;2402
746;2403
746;2404
746;2405
746;2406
746;2407
746;2408
746;2409
746;2410
746;2411
746;2412
746;2413
746;2414
746;2415
746;2416
746;2417
746;2418
746;2419
746;2420
746;2421
746;2422
746;2423
746;2424
746;2425
746;2426
746;2427
746;2428
746;2429
746;2430
746;2431
746;2432
746;2433
746;2434
746;2435
746;2436
746;2437
746;2438
746;2439
746;2440
746;2441
746;2442
746;2443
746;2444
746;2445
746;2446
746;2447
746;2448
746;2449
746;2450
746;2451
746;2452
746;2453
746;2454
746;2455
746;2456
746;2457
746;2458
746;2459
746;2460
746;2461
746;2462
746;2463
746;2464
746;2465
746;2466
746;2467
746;2468
746;2469
746;2470
746;2471
746;2472
746;2473
746;2474
746;2475
746;2476
746;2477
746;2478
746;2479
746;2480
747;2481
746;2482
746;2483
746;2484
746;2485
746;2486
746;2487
746;2488
746;2489
746;2490
746;2491
746;2492
746;2493
746;2494
746;2495
746;2496
746;2497
746;2498
746;2499
746;2500
746;2501
746;2502
746;2503
746;2504
746;2505
746;2506
746;2507
746;2508
746;2509
746;2510
746;2511
746;2512
746;2513
746;2514
746;2515
746;2516
746;2517
746;2518
746;2519
746;2520
746;2521
746;2522
746;2523
746;2524
746;2525
746;2526
746;2527
746;2528
746;2529
746;2530
746;2531
746;2532
746;2533
746;2534
746;2535
746;2536
746;2537
746;2538
746;2539
746;2540
746;2541
746;2542
746;2543
746;2544
747;2545
746;2546
746;2547
746;2548
746;2549
746;2550
746;2551
746;2552
746;2553
746;2554
746;2555
746;2556
746;2557
746;2558
746;2559
746;2560
746;2561
746;2562
746;2563
746;2564
746;2565
746;2566
746;2567
746;2568
746;2569
746;2570
746;2571
746;2572
746;2573
746;2574
746;2575
747;2576
747;2577
746;2578
747;2579
747;2580
746;2581
747;2582
746;2583
747;2584
747;2585
747;2586
746;2587
747;2588
746;2589
747;2590
747;2591
747;2592
747;2593
747;2594
747;2595
747;2596
747;2597
747;2598
747;2599
746;2600
747;2601
747;2602
746;2603
747;2604
747;2605
746;2606
747;2607
746;2608
746;2609
746;2610
746;2611
746;2612
746;2613
746;2614
746;2615
746;2616
746;2617
746;2618
746;2619
746;2620
746;2621
746;2622
746;2623
746;2624
746;2625
746;2626
746;2627
746;2628
747;2629
746;2630
747;2631
747;2632
747;2633
747;2634
746;2635
747;2636
747;2637
747;2638
747;2639
747;2640
747;2641
747;2642
747;2643
747;2644
747;2645
747;2646
747;2647
747;2648
747;2649
747;2650
747;2651
747;2652
747;2653
747;2654
747;2655
747;2656
747;2657
747;2658
747;2659
747;2660
747;2661
746;2662
747;2663
747;2664
747;2665
747;2666
747;2667
747;2668
747;2669
747;2670
747;2671
747;2672
747;2673
747;2674
747;2675
747;2676
747;2677
747;2678
747;2679
747;2680
747;2681
747;2682
747;2683
747;2684
747;2685
747;2686
747;2687
747;2688
747;2689
747;2690
747;2691
747;2692
747;2693
747;2694
747;2695
747;2696
747;2697
747;2698
747;2699
747;2700
747;2701
747;2702
747;2703
747;2704
747;2705
747;2706
747;2707
747;2708
747;2709
747;2710
747;2711
747;2712
747;2713
747;2714
747;2715
747;2716
747;2717
747;2718
747;2719
747;2720
747;2721
747;2722
747;2723
747;2724
747;2725
747;2726
747;2727
747;2728
747;2729
747;2730
747;2731
747;2732
747;2733
747;2734
747;2735
747;2736
747;2737
747;2738
747;2739
747;2740
747;2741
747;2742
747;2743
747;2744
747;2745
747;2746
747;2747
747;2748
747;2749
747;2750
747;2751
747;2752
747;2753
747;2754
747;2755
747;2756
747;2757
747;2758
747;2759
747;2760
747;2761
747;2762
747;2763
747;2764
747;2765
747;2766
747;2767
747;2768
747;2769
747;2770
747;2771
747;2772
747;2773
747;2774
747;2775
747;2776
747;2777
747;2778
747;2779
747;2780
747;2781
747;2782
747;2783
747;2784
747;2785
747;2786
747;2787
747;2788
747;2789
747;2790
747;2791
747;2792
747;2793
747;2794
747;2795
747;2796
747;2797
747;2798
747;2799
747;2800
747;2801
747;2802
747;2803
747;2804
747;2805
747;2806
747;2807
747;2808
747;2809
747;2810
747;2811
747;2812
747;2813
747;2814
747;2815
747;2816
746;2817
747;2818
746;2819
747;2820
747;2821
747;2822
747;2823
747;2824
747;2825
746;2826
747;2827
747;2828
747;2829
746;2830
746;2831
746;2832
746;2833
746;2834
746;2835
746;2836
746;2837
746;2838
746;2839
746;2840
746;2841
746;2842
746;2843
746;2844
746;2845
746;2846
746;2847
746;2848
746;2849
746;2850
746;2851
746;2852
746;2853
746;2854
746;2855
746;2856
746;2857
746;2858
746;2859
746;2860
746;2861
746;2862
746;2863
746;2864
746;2865
746;2866
746;2867
746;2868
746;2869
746;2870
746;2871
746;2872
746;2873
746;2874
746;2875
746;2876
746;2877
746;2878
746;2879
746;2880
746;2881
746;2882
746;2883
746;2884
746;2885
746;2886
746;2887
746;2888
746;2889
746;2890
746;2891
746;2892
746;2893
746;2894
746;2895
746;2896
746;2897
746;2898
746;2899
746;2900
746;2901
746;2902
746;2903
746;2904
746;2905
746;2906
746;2907
746;2908
746;2909
746;2910
746;2911
746;2912
746;2913
746;2914
746;2915
746;2916
746;2917
746;2918
746;2919
746;2920
746;2921
746;2922
746;2923
746;2924
746;2925
746;2926
746;2927
746;2928
746;2929
746;2930
746;2931
746;2932
746;2933
746;2934
746;2935
746;2936
746;2937
746;2938
746;2939
746;2940
746;2941
746;2942
746;2943
746;2944
746;2945
746;2946
746;2947
746;2948
746;2949
746;2950
746;2951
746;2952
746;2953
746;2954
746;2955
746;2956
746;2957
746;2958
746;2959
746;2960
746;2961
746;2962
746;2963
746;2964
746;2965
746;2966
746;2967
746;2968
746;2969
746;2970
746;2971
746;2972
746;2973
746;2974
746;2975
746;2976
746;2977
746;2978
746;2979
746;2980
746;2981
746;2982
746;2983
746;2984
746;2985
746;2986
746;2987
746;2988
746;2989
746;2990
746;2991
746;2992
746;2993
746;2994
746;2995
746;2996
746;2997
746;2998
746;2999
746;3000
746;3001
746;3002
746;3003
746;3004
746;3005
746;3006
746;3007
746;3008
746;3009
746;3010
746;3011
746;3012
746;3013
746;3014
746;3015
746;3016
746;3017
746;3018
746;3019
746;3020
746;3021
746;3022
746;3023
746;3024
746;3025
746;3026
746;3027
746;3028
747;3029
746;3030
746;3031
746;3032
746;3033
746;3034
746;3035
746;3036
747;3037
747;3038
747;3039
746;3040
746;3041
747;3042
746;3043
746;3044
747;3045
746;3046
747;3047
746;3048
746;3049
747;3050
747;3051
746;3052
746;3053
746;3054
746;3055
746;3056
746;3057
746;3058
747;3059
746;3060
746;3061
746;3062
746;3063
746;3064
746;3065
746;3066
747;3067
746;3068
746;3069
746;3070
746;3071
746;3072
746;3073
746;3074
746;3075
746;3076
746;3077
746;3078
746;3079
746;3080
746;3081
747;3082
746;3083
746;3084
746;3085
746;3086
746;3087
746;3088
747;3089
747;3090
747;3091
747;3092
747;3093
747;3094
747;3095
747;3096
747;3097
747;3098
747;3099
747;3100
746;3101
746;3102
747;3103
747;3104
747;3105
747;3106
747;3107
746;3108
746;3109
747;3110
747;3111
746;3112
746;3113
746;3114
746;3115
747;3116
746;3117
746;3118
746;3119
746;3120
746;3121
746;3122
746;3123
746;3124
746;3125
746;3126
746;3127
747;3128
746;3129
746;3130
746;3131
746;3132
746;3133
746;3134
746;3135
746;3136
746;3137
746;3138
746;3139
746;3140
746;3141
746;3142
746;3143
746;3144
746;3145
746;3146
746;3147
746;3148
746;3149
746;3150
746;3151
746;3152
746;3153
746;3154
747;3155
747;3156
746;3157
746;3158
746;3159
746;3160
746;3161
746;3162
746;3163
746;3164
746;3165
746;3166
746;3167
746;3168
746;3169
746;3170
746;3171
746;3172
746;3173
746;3174
746;3175
746;3176
746;3177
746;3178
746;3179
746;3180
746;3181
746;3182
746;3183
746;3184
746;3185
746;3186
746;3187
746;3188
746;3189
746;3190
746;3191
746;3192
746;3193
746;3194
746;3195
746;3196
746;3197
746;3198
746;3199
746;3200
746;3201
746;3202
746;3203
746;3204
746;3205
746;3206
746;3207
746;3208
746;3209
746;3210
746;3211
746;3212
746;3213
746;3214
746;3215
746;3216
746;3217
746;3218
746;3219
746;3220
746;3221
746;3222
746;3223
746;3224
746;3225
746;3226
746;3227
746;3228
746;3229
746;3230
746;3231
746;3232
746;3233
746;3234
746;3235
746;3236
746;3237
746;3238
746;3239
746;3240
746;3241
746;3242
746;3243
746;3244
746;3245
746;3246
746;3247
745;3248
745;3249
746;3250
746;3251
746;3252
746;3253
746;3254
746;3255
746;3256
746;3257
746;3258
746;3259
746;3260
746;3261
746;3262
746;3263
746;3264
746;3265
746;3266
746;3267
745;3268
746;3269
745;3270
745;3271
745;3272
745;3273
745;3274
745;3275
745;3276
745;3277
745;3278
745;3279
744;3280
745;3281
744;3282
744;3283
744;3284
744;3285
744;3286
744;3287
744;3288
744;3289
744;3290
745;3291
744;3292
745;3293
745;3294
745;3295
745;3296
745;3297
745;3298
745;3299
745;3300
745;3301
745;3302
745;3303
745;3304
746;3305
745;3306
746;3307
745;3308
745;3309
745;3310
746;3311
745;3312
746;3313
746;3314
746;3315
746;3316
746;3317
746;3318
746;3319
746;3320
746;3321
746;3322
746;3323
746;3324
746;3325
746;3326
746;3327
746;3328
746;3329
746;3330
746;3331
746;3332
746;3333
746;3334
746;3335
746;3336
746;3337
746;3338
746;3339
746;3340
746;3341
746;3342
746;3343
746;3344
746;3345
746;3346
746;3347
746;3348
746;3349
746;3350
746;3351
746;3352
746;3353
746;3354
746;3355
746;3356
746;3357
746;3358
746;3359
746;3360
746;3361
746;3362
747;3363
746;3364
746;3365
746;3366
747;3367
747;3368
747;3369
747;3370
747;3371
746;3372
747;3373
746;3374
746;3375
746;3376
746;3377
746;3378
746;3379
746;3380
746;3381
746;3382
745;3383
745;3384
745;3385
745;3386
745;3387
745;3388
745;3389
745;3390
745;3391
745;3392
745;3393
744;3394
744;3395
745;3396
744;3397
745;3398
744;3399
744;3400
744;3401
745;3402
745;3403
745;3404
745;3405
745;3406
745;3407
745;3408
745;3409
745;3410
745;3411
745;3412
746;3413
745;3414
745;3415
746;3416
746;3417
746;3418
746;3419
746;3420
747;3421
746;3422
746;3423
747;3424
747;3425
747;3426
747;3427
747;3428
747;3429
748;3430
748;3431
748;3432
748;3433
748;3434
748;3435
748;3436
748;3437
748;3438
748;3439
748;3440
748;3441
748;3442
748;3443
748;3444
748;3445
748;3446
748;3447
747;3448
747;3449
748;3450
748;3451
747;3452
747;3453
747;3454
747;3455
747;3456
747;3457
746;3458
746;3459
747;3460
747;3461
746;3462
746;3463
746;3464
746;3465
746;3466
746;3467
746;3468
746;3469
746;3470
746;3471
746;3472
746;3473
746;3474
746;3475
746;3476
746;3477
746;3478
746;3479
746;3480
746;3481
746;3482
746;3483
746;3484
746;3485
747;3486
747;3487
747;3488
747;3489
747;3490
747;3491
747;3492
747;3493
747;3494
747;3495
747;3496
747;3497
747;3498
746;3499
746;3500
746;3501
746;3502
746;3503
746;3504
747;3505
747;3506
747;3507
747;3508
748;3509
748;3510
748;3511
748;3512
748;3513
749;3514
749;3515
749;3516
749;3517
749;3518
749;3519
749;3520
749;3521
749;3522
749;3523
749;3524
748;3525
748;3526
748;3527
748;3528
748;3529
748;3530
748;3531
748;3532
748;3533
748;3534
748;3535
748;3536
748;3537
748;3538
748;3539
748;3540
748;3541
748;3542
748;3543
748;3544
748;3545
748;3546
748;3547
749;3548
749;3549
749;3550
749;3551
749;3552
749;3553
749;3554
749;3555
749;3556
749;3557
749;3558
749;3559
749;3560
749;3561
749;3562
749;3563
749;3564
749;3565
749;3566
749;3567
749;3568
748;3569
748;3570
748;3571
748;3572
748;3573
748;3574
748;3575
748;3576
748;3577
748;3578
748;3579
748;3580
748;3581
748;3582
748;3583
748;3584
748;3585
748;3586
748;3587
749;3588
748;3589
748;3590
748;3591
748;3592
747;3593
747;3594
746;3595
746;3596
746;3597
746;3598
746;3599
746;3600
746;3601
746;3602
746;3603
747;3604
747;3605
747;3606
747;3607
747;3608
747;3609
747;3610
747;3611
747;3612
747;3613
747;3614
747;3615
747;3616
748;3617
748;3618
748;3619
748;3620
748;3621
748;3622
749;3623
749;3624
749;3625
749;3626
749;3627
750;3628
750;3629
750;3630
750;3631
751;3632
751;3633
751;3634
751;3635
751;3636
751;3637
752;3638
752;3639
752;3640
752;3641
753;3642
753;3643
753;3644
753;3645
752;3646
752;3647
753;3648
753;3649
753;3650
753;3651
753;3652
754;3653
754;3654
754;3655
754;3656
754;3657
754;3658
754;3659
754;3660
754;3661
754;3662
755;3663
755;3664
755;3665
755;3666
754;3667
754;3668
753;3669
752;3670
752;3671
750;3672
750;3673
749;3674
748;3675
748;3676
748;3677
747;3678
747;3679
747;3680
747;3681
747;3682
747;3683
747;3684
747;3685
748;3686
748;3687
748;3688
748;3689
748;3690
748;3691
748;3692
749;3693
749;3694
749;3695
749;3696
748;3697
748;3698
747;3699
747;3700
748;3701
748;3702
748;3703
748;3704
748;3705
749;3706
749;3707
749;3708
750;3709
750;3710
751;3711
751;3712
751;3713
752;3714
752;3715
752;3716
752;3717
752;3718
752;3719
752;3720
753;3721
753;3722
754;3723
754;3724
754;3725
754;3726
754;3727
753;3728
753;3729
752;3730
751;3731
751;3732
750;3733
750;3734
749;3735
749;3736
749;3737
749;3738
750;3739
750;3740
750;3741
751;3742
751;3743
751;3744
752;3745
752;3746
752;3747
752;3748
753;3749
753;3750
753;3751
754;3752
754;3753
755;3754
755;3755
755;3756
755;3757
755;3758
755;3759
754;3760
754;3761
753;3762
753;3763
753;3764
753;3765
753;3766
753;3767
753;3768
753;3769
753;3770
754;3771
754;3772
754;3773
754;3774
755;3775
755;3776
755;3777
756;3778
756;3779
756;3780
756;3781
756;3782
756;3783
755;3784
755;3785
755;3786
755;3787
754;3788
754;3789
753;3790
752;3791
752;3792
751;3793
751;3794
751;3795
751;3796
751;3797
751;3798
752;3799
752;3800
752;3801
751;3802
752;3803
752;3804
751;3805
751;3806
751;3807
752;3808
752;3809
752;3810
753;3811
753;3812
754;3813
755;3814
755;3815
756;3816
756;3817
756;3818
757;3819
758;3820
758;3821
758;3822
759;3823
759;3824
760;3825
760;3826
760;3827
761;3828
761;3829
761;3830
762;3831
762;3832
763;3833
763;3834
763;3835
764;3836
764;3837
764;3838
765;3839
765;3840
766;3841
766;3842
766;3843
766;3844
766;3845
766;3846
766;3847
766;3848
766;3849
766;3850
765;3851
765;3852
765;3853
764;3854
764;3855
764;3856
763;3857
762;3858
762;3859
762;3860
762;3861
762;3862
762;3863
762;3864
762;3865
761;3866
761;3867
761;3868
761;3869
761;3870
761;3871
761;3872
761;3873
760;3874
760;3875
759;3876
759;3877
759;3878
758;3879
758;3880
758;3881
759;3882
759;3883
759;3884
759;3885
760;3886
760;3887
761;3888
761;3889
762;3890
762;3891
762;3892
762;3893
763;3894
763;3895
763;3896
764;3897
764;3898
764;3899
765;3900
765;3901
765;3902
766;3903
765;3904
766;3905
766;3906
766;3907
766;3908
767;3909
767;3910
767;3911
766;3912
766;3913
766;3914
766;3915
766;3916
766;3917
766;3918
765;3919
765;3920
764;3921
763;3922
762;3923
761;3924
758;3925
757;3926
757;3927
756;3928
755;3929
755;3930
754;3931
754;3932
754;3933
755;3934
755;3935
755;3936
755;3937
756;3938
757;3939
757;3940
758;3941
758;3942
759;3943
759;3944
760;3945
760;3946
760;3947
760;3948
760;3949
760;3950
760;3951
760;3952
761;3953
761;3954
762;3955
763;3956
763;3957
764;3958
764;3959
764;3960
764;3961
765;3962
766;3963
766;3964
766;3965
766;3966
767;3967
767;3968
767;3969
767;3970
767;3971
767;3972
767;3973
767;3974
767;3975
767;3976
767;3977
767;3978
766;3979
767;3980
766;3981
765;3982
765;3983
764;3984
763;3985
762;3986
760;3987
758;3988
757;3989
755;3990
753;3991
752;3992
750;3993
745;3994
743;3995
740;3996
738;3997
737;3998
735;3999
731;4000
729;4001
728;4002
726;4003
726;4004
726;4005
725;4006
726;4007
726;4008
726;4009
727;4010
729;4011
732;4012
733;4013
734;4014
736;4015
738;4016
740;4017
743;4018
745;4019
746;4020
748;4021
749;4022
751;4023
752;4024
755;4025
756;4026
757;4027
758;4028
758;4029
759;4030
760;4031
760;4032
760;4033
761;4034
761;4035
761;4036
762;4037
763;4038
763;4039
763;4040
764;4041
764;4042
765;4043
765;4044
765;4045
765;4046
765;4047
765;4048
765;4049
764;4050
764;4051
764;4052
764;4053
763;4054
763;4055
761;4056
761;4057
760;4058
759;4059
759;4060
759;4061
759;4062
759;4063
760;4064
760;4065
760;4066
761;4067
762;4068
763;4069
764;4070
765;4071
765;4072
766;4073
767;4074
768;4075
769;4076
769;4077
770;4078
770;4079
771;4080
771;4081
772;4082
772;4083
772;4084
772;4085
772;4086
771;4087
772;4088
772;4089
772;4090
772;4091
772;4092
773;4093
773;4094
773;4095
774;4096
774;4097
775;4098
774;4099
774;4100
774;4101
774;4102
773;4103
772;4104
770;4105
769;4106
768;4107
767;4108
766;4109
766;4110
764;4111
764;4112
763;4113
763;4114
762;4115
761;4116
760;4117
760;4118
758;4119
758;4120
757;4121
756;4122
754;4123
754;4124
754;4125
753;4126
753;4127
751;4128
750;4129
746;4130
744;4131
743;4132
741;4133
740;4134
739;4135
738;4136
738;4137
738;4138
739;4139
740;4140
741;4141
744;4142
744;4143
746;4144
746;4145
748;4146
749;4147
752;4148
753;4149
754;4150
755;4151
755;4152
755;4153
754;4154
754;4155
753;4156
753;4157
753;4158
753;4159
753;4160
753;4161
753;4162
754;4163
754;4164
754;4165
755;4166
756;4167
757;4168
757;4169
757;4170
757;4171
757;4172
755;4173
754;4174
754;4175
753;4176
753;4177
752;4178
751;4179
750;4180
748;4181
746;4182
744;4183
742;4184
740;4185
737;4186
736;4187
736;4188
735;4189
736;4190
736;4191
738;4192
739;4193
741;4194
742;4195
744;4196
746;4197
749;4198
751;4199
752;4200
753;4201
754;4202
755;4203
757;4204
758;4205
758;4206
759;4207
759;4208
759;4209
759;4210
760;4211
760;4212
761;4213
761;4214
761;4215
760;4216
759;4217
759;4218
758;4219
758;4220
757;4221
756;4222
754;4223
753;4224
753;4225
752;4226
751;4227
750;4228
750;4229
749;4230
749;4231
748;4232
747;4233
746;4234
746;4235
746;4236
746;4237
746;4238
745;4239
746;4240
747;4241
748;4242
749;4243
749;4244
751;4245
752;4246
753;4247
754;4248
755;4249
755;4250
757;4251
758;4252
759;4253
761;4254
762;4255
763;4256
764;4257
765;4258
765;4259
766;4260
766;4261
766;4262
766;4263
765;4264
765;4265
763;4266
763;4267
762;4268
762;4269
762;4270
761;4271
761;4272
761;4273
761;4274
761;4275
761;4276
762;4277
762;4278
763;4279
764;4280
764;4281
765;4282
766;4283
767;4284
768;4285
769;4286
769;4287
769;4288
770;4289
770;4290
769;4291
769;4292
769;4293
769;4294
768;4295
767;4296
766;4297
765;4298
763;4299
762;4300
760;4301
759;4302
756;4303
754;4304
753;4305
751;4306
750;4307
749;4308
749;4309
749;4310
749;4311
748;4312
748;4313
747;4314
746;4315
746;4316
747;4317
748;4318
748;4319
749;4320
748;4321
747;4322
746;4323
746;4324
744;4325
743;4326
742;4327
741;4328
740;4329
740;4330
739;4331
738;4332
738;4333
737;4334
736;4335
736;4336
735;4337
735;4338
736;4339
739;4340
740;4341
742;4342
743;4343
745;4344
746;4345
747;4346
751;4347
752;4348
753;4349
754;4350
755;4351
756;4352
758;4353
759;4354
760;4355
761;4356
761;4357
761;4358
760;4359
760;4360
759;4361
758;4362
757;4363
755;4364
754;4365
753;4366
752;4367
752;4368
751;4369
750;4370
749;4371
748;4372
748;4373
748;4374
748;4375
747;4376
747;4377
748;4378
748;4379
749;4380
749;4381
750;4382
752;4383
754;4384
755;4385
755;4386
755;4387
756;4388
757;4389
758;4390
759;4391
760;4392
761;4393
761;4394
761;4395
761;4396
761;4397
761;4398
761;4399
761;4400
761;4401
762;4402
762;4403
763;4404
763;4405
764;4406
764;4407
765;4408
765;4409
765;4410
765;4411
764;4412
763;4413
763;4414
763;4415
762;4416
762;4417
762;4418
762;4419
762;4420
762;4421
763;4422
763;4423
764;4424
764;4425
765;4426
765;4427
766;4428
766;4429
766;4430
766;4431
765;4432
762;4433
761;4434
759;4435
758;4436
757;4437
756;4438
756;4439
756;4440
756;4441
757;4442
757;4443
758;4444
759;4445
761;4446
763;4447
764;4448
765;4449
767;4450
768;4451
771;4452
773;4453
774;4454
776;4455
776;4456
777;4457
779;4458
779;4459
780;4460
780;4461
780;4462
780;4463
778;4464
777;4465
775;4466
774;4467
773;4468
771;4469
770;4470
769;4471
769;4472
769;4473
769;4474
769;4475
768;4476
767;4477
766;4478
765;4479
765;4480
764;4481
764;4482
765;4483
765;4484
766;4485
767;4486
765;4487
764;4488
762;4489
761;4490
761;4491
761;4492
760;4493
760;4494
759;4495
759;4496
758;4497
756;4498
755;4499
753;4500
749;4501
748;4502
748;4503
747;4504
747;4505
748;4506
747;4507
748;4508
747;4509
747;4510
747;4511
748;4512
749;4513
750;4514
752;4515
752;4516
754;4517
755;4518
756;4519
759;4520
760;4521
761;4522
762;4523
763;4524
764;4525
765;4526
765;4527
765;4528
764;4529
763;4530
763;4531
763;4532
762;4533
762;4534
762;4535
762;4536
762;4537
763;4538
764;4539
765;4540
766;4541
767;4542
768;4543
769;4544
770;4545
770;4546
770;4547
771;4548
771;4549
772;4550
772;4551
772;4552
773;4553
773;4554
773;4555
774;4556
775;4557
774;4558
774;4559
773;4560
773;4561
772;4562
771;4563
770;4564
769;4565
768;4566
766;4567
764;4568
761;4569
759;4570
758;4571
757;4572
756;4573
755;4574
754;4575
754;4576
754;4577
755;4578
755;4579
755;4580
756;4581
757;4582
757;4583
758;4584
759;4585
760;4586
761;4587
764;4588
764;4589
765;4590
766;4591
767;4592
768;4593
767;4594
766;4595
765;4596
764;4597
763;4598
762;4599
761;4600
761;4601
760;4602
761;4603
760;4604
761;4605
762;4606
761;4607
760;4608
758;4609
757;4610
756;4611
754;4612
753;4613
752;4614
751;4615
750;4616
749;4617
746;4618
743;4619
739;4620
735;4621
731;4622
727;4623
724;4624
720;4625
719;4626
719;4627
720;4628
720;4629
721;4630
725;4631
728;4632
730;4633
731;4634
733;4635
735;4636
738;4637
738;4638
739;4639
740;4640
741;4641
742;4642
743;4643
744;4644
745;4645
746;4646
747;4647
748;4648
750;4649
752;4650
753;4651
754;4652
754;4653
754;4654
754;4655
754;4656
754;4657
754;4658
754;4659
755;4660
755;4661
756;4662
756;4663
757;4664
757;4665
758;4666
758;4667
760;4668
761;4669
762;4670
763;4671
764;4672
765;4673
767;4674
768;4675
768;4676
768;4677
768;4678
767;4679
766;4680
766;4681
765;4682
765;4683
765;4684
764;4685
762;4686
762;4687
761;4688
761;4689
761;4690
761;4691
761;4692
761;4693
761;4694
761;4695
761;4696
762;4697
762;4698
764;4699
765;4700
766;4701
767;4702
767;4703
768;4704
769;4705
769;4706
770;4707
770;4708
770;4709
770;4710
771;4711
772;4712
772;4713
773;4714
773;4715
774;4716
774;4717
775;4718
776;4719
776;4720
777;4721
777;4722
778;4723
778;4724
777;4725
776;4726
774;4727
772;4728
769;4729
763;4730
760;4731
758;4732
756;4733
754;4734
752;4735
749;4736
749;4737
748;4738
748;4739
748;4740
749;4741
749;4742
750;4743
749;4744
750;4745
750;4746
750;4747
751;4748
753;4749
753;4750
753;4751
754;4752
754;4753
754;4754
753;4755
753;4756
752;4757
752;4758
752;4759
751;4760
747;4761
745;4762
742;4763
740;4764
738;4765
737;4766
735;4767
735;4768
736;4769
737;4770
737;4771
738;4772
740;4773
741;4774
743;4775
744;4776
745;4777
747;4778
748;4779
748;4780
748;4781
749;4782
749;4783
748;4784
745;4785
743;4786
742;4787
740;4788
738;4789
737;4790
735;4791
734;4792
734;4793
734;4794
734;4795
735;4796
736;4797
739;4798
740;4799
742;4800
745;4801
747;4802
748;4803
752;4804
753;4805
755;4806
756;4807
758;4808
759;4809
759;4810
758;4811
757;4812
755;4813
753;4814
751;4815
747;4816
745;4817
743;4818
742;4819
741;4820
740;4821
739;4822
738;4823
739;4824
740;4825
740;4826
741;4827
741;4828
742;4829
742;4830
743;4831
743;4832
744;4833
743;4834
743;4835
743;4836
744;4837
745;4838
745;4839
745;4840
744;4841
741;4842
738;4843
734;4844
731;4845
727;4846
720;4847
717;4848
714;4849
712;4850
711;4851
710;4852
711;4853
711;4854
712;4855
712;4856
712;4857
712;4858
712;4859
713;4860
714;4861
716;4862
718;4863
720;4864
726;4865
729;4866
731;4867
733;4868
735;4869
737;4870
741;4871
743;4872
745;4873
747;4874
749;4875
750;4876
753;4877
753;4878
753;4879
751;4880
751;4881
749;4882
749;4883
748;4884
747;4885
747;4886
747;4887
748;4888
748;4889
748;4890
747;4891
747;4892
746;4893
747;4894
747;4895
748;4896
749;4897
750;4898
751;4899
752;4900
753;4901
755;4902
754;4903
754;4904
753;4905
753;4906
753;4907
752;4908
751;4909
751;4910
750;4911
750;4912
750;4913
750;4914
751;4915
751;4916
751;4917
750;4918
750;4919
751;4920
752;4921
754;4922
755;4923
757;4924
759;4925
761;4926
763;4927
763;4928
763;4929
764;4930
765;4931
765;4932
766;4933
767;4934
766;4935
766;4936
766;4937
766;4938
766;4939
767;4940
767;4941
768;4942
769;4943
770;4944
771;4945
773;4946
774;4947
775;4948
776;4949
776;4950
777;4951
778;4952
778;4953
778;4954
779;4955
779;4956
779;4957
776;4958
774;4959
772;4960
771;4961
769;4962
767;4963
764;4964
762;4965
760;4966
758;4967
756;4968
754;4969
750;4970
748;4971
746;4972
744;4973
742;4974
741;4975
739;4976
739;4977
739;4978
739;4979
740;4980
741;4981
741;4982
741;4983
742;4984
742;4985
743;4986
744;4987
745;4988
747;4989
748;4990
749;4991
749;4992
749;4993
749;4994
749;4995
749;4996
748;4997
748;4998
747;4999
746;5000
744;5001
743;5002
743;5003
742;5004
742;5005
742;5006
742;5007
745;5008
746;5009
749;5010
751;5011
752;5012
754;5013
757;5014
758;5015
760;5016
761;5017
761;5018
762;5019
763;5020
763;5021
763;5022
763;5023
762;5024
761;5025
758;5026
757;5027
756;5028
755;5029
754;5030
754;5031
753;5032
753;5033
753;5034
753;5035
753;5036
752;5037
751;5038
750;5039
749;5040
748;5041
747;5042
745;5043
742;5044
738;5045
736;5046
734;5047
731;5048
730;5049
728;5050
726;5051
726;5052
727;5053
727;5054
729;5055
731;5056
736;5057
739;5058
742;5059
744;5060
746;5061
748;5062
750;5063
753;5064
754;5065
754;5066
753;5067
752;5068
751;5069
748;5070
745;5071
743;5072
740;5073
738;5074
735;5075
730;5076
728;5077
726;5078
724;5079
723;5080
721;5081
717;5082
717;5083
716;5084
717;5085
717;5086
718;5087
720;5088
722;5089
723;5090
724;5091
726;5092
728;5093
729;5094
731;5095
733;5096
734;5097
736;5098
738;5099
740;5100
745;5101
747;5102
750;5103
752;5104
754;5105
757;5106
760;5107
761;5108
762;5109
763;5110
764;5111
765;5112
767;5113
767;5114
768;5115
768;5116
768;5117
768;5118
768;5119
768;5120
768;5121
769;5122
768;5123
768;5124
764;5125
762;5126
760;5127
759;5128
757;5129
756;5130
755;5131
752;5132
752;5133
751;5134
751;5135
751;5136
752;5137
754;5138
755;5139
757;5140
758;5141
760;5142
761;5143
764;5144
766;5145
767;5146
768;5147
769;5148
771;5149
772;5150
771;5151
771;5152
772;5153
771;5154
771;5155
771;5156
769;5157
768;5158
767;5159
766;5160
764;5161
763;5162
760;5163
759;5164
759;5165
758;5166
757;5167
757;5168
756;5169
756;5170
755;5171
755;5172
754;5173
753;5174
753;5175
753;5176
753;5177
754;5178
754;5179
755;5180
755;5181
754;5182
752;5183
749;5184
745;5185
739;5186
730;5187
726;5188
722;5189
720;5190
717;5191
715;5192
713;5193
710;5194
710;5195
710;5196
711;5197
712;5198
714;5199
720;5200
723;5201
726;5202
730;5203
733;5204
735;5205
739;5206
741;5207
742;5208
743;5209
744;5210
743;5211
740;5212
738;5213
736;5214
733;5215
732;5216
730;5217
726;5218
725;5219
724;5220
723;5221
723;5222
723;5223
723;5224
725;5225
726;5226
729;5227
731;5228
733;5229
736;5230
741;5231
744;5232
746;5233
749;5234
752;5235
754;5236
757;5237
758;5238
759;5239
759;5240
760;5241
760;5242
759;5243
759;5244
759;5245
758;5246
757;5247
757;5248
757;5249
756;5250
756;5251
756;5252
754;5253
754;5254
753;5255
749;5256
747;5257
746;5258
744;5259
742;5260
740;5261
737;5262
736;5263
734;5264
733;5265
732;5266
731;5267
733;5268
735;5269
737;5270
739;5271
742;5272
745;5273
751;5274
755;5275
757;5276
759;5277
760;5278
760;5279
757;5280
757;5281
756;5282
755;5283
755;5284
754;5285
755;5286
755;5287
757;5288
757;5289
759;5290
761;5291
762;5292
765;5293
764;5294
763;5295
761;5296
758;5297
755;5298
750;5299
748;5300
746;5301
745;5302
745;5303
746;5304
748;5305
749;5306
751;5307
752;5308
754;5309
756;5310
759;5311
761;5312
763;5313
765;5314
766;5315
766;5316
765;5317
764;5318
763;5319
760;5320
758;5321
755;5322
750;5323
747;5324
745;5325
743;5326
742;5327
741;5328
740;5329
740;5330
740;5331
741;5332
742;5333
743;5334
744;5335
747;5336
749;5337
751;5338
753;5339
754;5340
755;5341
758;5342
759;5343
760;5344
760;5345
760;5346
760;5347
760;5348
759;5349
760;5350
760;5351
760;5352
760;5353
761;5354
761;5355
761;5356
761;5357
761;5358
760;5359
759;5360
759;5361
758;5362
758;5363
757;5364
756;5365
756;5366
755;5367
754;5368
755;5369
754;5370
755;5371
755;5372
756;5373
757;5374
757;5375
756;5376
756;5377
756;5378
757;5379
757;5380
757;5381
757;5382
757;5383
756;5384
755;5385
754;5386
752;5387
751;5388
751;5389
751;5390
753;5391
754;5392
755;5393
755;5394
755;5395
755;5396
754;5397
752;5398
752;5399
751;5400
751;5401
750;5402
748;5403
743;5404
739;5405
734;5406
728;5407
723;5408
718;5409
707;5410
702;5411
697;5412
693;5413
690;5414
688;5415
687;5416
687;5417
689;5418
691;5419
694;5420
698;5421
706;5422
711;5423
716;5424
722;5425
727;5426
732;5427
736;5428
744;5429
748;5430
751;5431
753;5432
755;5433
756;5434
759;5435
759;5436
759;5437
759;5438
758;5439
757;5440
754;5441
753;5442
752;5443
751;5444
750;5445
749;5446
746;5447
745;5448
744;5449
744;5450
743;5451
742;5452
739;5453
738;5454
737;5455
737;5456
737;5457
737;5458
738;5459
740;5460
741;5461
743;5462
744;5463
745;5464
747;5465
750;5466
751;5467
753;5468
754;5469
752;5470
751;5471
742;5472
737;5473
732;5474
728;5475
724;5476
721;5477
718;5478
717;5479
717;5480
719;5481
720;5482
722;5483
728;5484
730;5485
733;5486
735;5487
737;5488
740;5489
742;5490
743;5491
745;5492
746;5493
748;5494
749;5495
751;5496
752;5497
752;5498
753;5499
754;5500
755;5501
757;5502
758;5503
760;5504
760;5505
762;5506
763;5507
764;5508
766;5509
768;5510
768;5511
769;5512
770;5513
770;5514
769;5515
768;5516
768;5517
767;5518
767;5519
767;5520
765;5521
764;5522
763;5523
762;5524
761;5525
761;5526
761;5527
761;5528
761;5529
760;5530
760;5531
760;5532
758;5533
757;5534
757;5535
755;5536
754;5537
752;5538
750;5539
749;5540
749;5541
749;5542
749;5543
750;5544
750;5545
752;5546
752;5547
754;5548
755;5549
757;5550
758;5551
760;5552
762;5553
764;5554
766;5555
767;5556
769;5557
768;5558
767;5559
766;5560
764;5561
762;5562
760;5563
756;5564
755;5565
754;5566
752;5567
751;5568
750;5569
749;5570
746;5571
746;5572
746;5573
746;5574
746;5575
747;5576
746;5577
745;5578
744;5579
744;5580
744;5581
744;5582
742;5583
741;5584
740;5585
740;5586
739;5587
739;5588
740;5589
740;5590
741;5591
742;5592
742;5593
743;5594
746;5595
748;5596
749;5597
750;5598
750;5599
750;5600
750;5601
750;5602
751;5603
751;5604
751;5605
752;5606
752;5607
754;5608
755;5609
756;5610
757;5611
758;5612
759;5613
760;5614
761;5615
761;5616
760;5617
760;5618
759;5619
757;5620
756;5621
755;5622
753;5623
751;5624
749;5625
744;5626
742;5627
740;5628
738;5629
735;5630
732;5631
727;5632
725;5633
723;5634
722;5635
721;5636
720;5637
720;5638
721;5639
722;5640
721;5641
722;5642
722;5643
723;5644
725;5645
726;5646
728;5647
729;5648
731;5649
732;5650
735;5651
737;5652
738;5653
741;5654
742;5655
745;5656
747;5657
752;5658
753;5659
756;5660
758;5661
760;5662
761;5663
764;5664
764;5665
765;5666
766;5667
766;5668
766;5669
767;5670
767;5671
767;5672
767;5673
766;5674
765;5675
762;5676
760;5677
757;5678
755;5679
752;5680
750;5681
747;5682
746;5683
746;5684
746;5685
746;5686
746;5687
746;5688
747;5689
748;5690
749;5691
750;5692
752;5693
753;5694
755;5695
755;5696
754;5697
752;5698
751;5699
750;5700
749;5701
749;5702
750;5703
751;5704
751;5705
752;5706
755;5707
756;5708
758;5709
760;5710
762;5711
764;5712
768;5713
769;5714
768;5715
767;5716
765;5717
763;5718
757;5719
754;5720
752;5721
748;5722
745;5723
742;5724
740;5725
736;5726
735;5727
734;5728
734;5729
734;5730
735;5731
736;5732
738;5733
739;5734
741;5735
743;5736
746;5737
750;5738
751;5739
751;5740
750;5741
749;5742
749;5743
749;5744
749;5745
749;5746
749;5747
749;5748
749;5749
750;5750
751;5751
752;5752
753;5753
754;5754
756;5755
758;5756
760;5757
761;5758
762;5759
763;5760
762;5761
761;5762
759;5763
758;5764
757;5765
757;5766
756;5767
757;5768
757;5769
757;5770
759;5771
760;5772
761;5773
763;5774
766;5775
768;5776
769;5777
771;5778
773;5779
774;5780
775;5781
775;5782
775;5783
775;5784
775;5785
774;5786
773;5787
772;5788
772;5789
771;5790
771;5791
770;5792
770;5793
768;5794
766;5795
764;5796
761;5797
759;5798
757;5799
754;5800
753;5801
752;5802
751;5803
752;5804
753;5805
755;5806
757;5807
759;5808
761;5809
762;5810
764;5811
766;5812
767;5813
767;5814
767;5815
767;5816
767;5817
768;5818
767;5819
767;5820
767;5821
768;5822
768;5823
768;5824
769;5825
769;5826
769;5827
768;5828
768;5829
767;5830
765;5831
764;5832
763;5833
763;5834
762;5835
761;5836
759;5837
757;5838
756;5839
755;5840
752;5841
749;5842
734;5843
726;5844
717;5845
709;5846
701;5847
695;5848
689;5849
679;5850
675;5851
673;5852
672;5853
672;5854
674;5855
680;5856
685;5857
690;5858
696;5859
702;5860
709;5861
720;5862
725;5863
730;5864
735;5865
739;5866
742;5867
750;5868
753;5869
755;5870
758;5871
759;5872
759;5873
759;5874
760;5875
761;5876
761;5877
761;5878
762;5879
763;5880
765;5881
766;5882
767;5883
767;5884
768;5885
769;5886
770;5887
770;5888
770;5889
769;5890
768;5891
768;5892
767;5893
766;5894
766;5895
766;5896
766;5897
767;5898
767;5899
769;5900
770;5901
771;5902
773;5903
773;5904
774;5905
775;5906
775;5907
775;5908
774;5909
772;5910
771;5911
767;5912
766;5913
765;5914
764;5915
764;5916
763;5917
764;5918
765;5919
765;5920
766;5921
767;5922
768;5923
771;5924
771;5925
771;5926
771;5927
770;5928
769;5929
767;5930
765;5931
763;5932
762;5933
760;5934
758;5935
757;5936
755;5937
755;5938
755;5939
754;5940
754;5941
754;5942
754;5943
753;5944
754;5945
754;5946
755;5947
755;5948
755;5949
754;5950
754;5951
753;5952
753;5953
753;5954
752;5955
753;5956
752;5957
753;5958
752;5959
753;5960
753;5961
753;5962
753;5963
753;5964
753;5965
752;5966
751;5967
749;5968
747;5969
745;5970
743;5971
742;5972
741;5973
740;5974
739;5975
739;5976
739;5977
740;5978
741;5979
743;5980
744;5981
745;5982
745;5983
746;5984
746;5985
748;5986
748;5987
749;5988
750;5989
751;5990
752;5991
754;5992
755;5993
757;5994
759;5995
760;5996
761;5997
763;5998
764;5999
764;6000
763;6001
763;6002
762;6003
762;6004
762;6005
762;6006
761;6007
761;6008
761;6009
760;6010
760;6011
760;6012
760;6013
761;6014
761;6015
762;6016
762;6017
760;6018
757;6019
752;6020
746;6021
741;6022
731;6023
726;6024
722;6025
719;6026
717;6027
715;6028
715;6029
716;6030
717;6031
720;6032
722;6033
725;6034
729;6035
736;6036
739;6037
742;6038
745;6039
747;6040
749;6041
751;6042
752;6043
753;6044
754;6045
755;6046
756;6047
757;6048
757;6049
758;6050
758;6051
759;6052
760;6053
762;6054
763;6055
764;6056
765;6057
766;6058
767;6059
768;6060
771;6061
772;6062
773;6063
773;6064
772;6065
771;6066
770;6067
769;6068
768;6069
767;6070
767;6071
767;6072
767;6073
767;6074
767;6075
766;6076
765;6077
763;6078
760;6079
758;6080
756;6081
755;6082
754;6083
753;6084
751;6085
751;6086
751;6087
752;6088
752;6089
753;6090
756;6091
757;6092
758;6093
759;6094
759;6095
759;6096
758;6097
755;6098
753;6099
752;6100
751;6101
749;6102
748;6103
743;6104
742;6105
740;6106
739;6107
738;6108
738;6109
736;6110
735;6111
733;6112
731;6113
731;6114
730;6115
730;6116
730;6117
730;6118
729;6119
729;6120
728;6121
727;6122
728;6123
729;6124
730;6125
731;6126
733;6127
736;6128
742;6129
744;6130
747;6131
749;6132
751;6133
754;6134
758;6135
759;6136
761;6137
762;6138
762;6139
762;6140
763;6141
764;6142
764;6143
765;6144
765;6145
765;6146
764;6147
763;6148
763;6149
763;6150
762;6151
762;6152
761;6153
761;6154
762;6155
762;6156
762;6157
762;6158
761;6159
761;6160
759;6161
758;6162
756;6163
755;6164
754;6165
751;6166
750;6167
750;6168
750;6169
749;6170
749;6171
748;6172
748;6173
747;6174
746;6175
744;6176
743;6177
742;6178
741;6179
740;6180
740;6181
740;6182
741;6183
744;6184
746;6185
748;6186
750;6187
752;6188
754;6189
756;6190
760;6191
761;6192
763;6193
764;6194
765;6195
766;6196
767;6197
767;6198
768;6199
767;6200
767;6201
766;6202
762;6203
760;6204
758;6205
757;6206
755;6207
755;6208
752;6209
751;6210
751;6211
750;6212
750;6213
750;6214
749;6215
750;6216
751;6217
752;6218
754;6219
756;6220
758;6221
760;6222
760;6223
760;6224
760;6225
760;6226
759;6227
757;6228
754;6229
751;6230
747;6231
742;6232
738;6233
732;6234
728;6235
725;6236
722;6237
720;6238
718;6239
717;6240
718;6241
719;6242
720;6243
722;6244
723;6245
724;6246
723;6247
723;6248
722;6249
721;6250
721;6251
721;6252
721;6253
721;6254
721;6255
721;6256
722;6257
723;6258
727;6259
729;6260
732;6261
734;6262
736;6263
739;6264
745;6265
747;6266
750;6267
752;6268
754;6269
756;6270
759;6271
760;6272
761;6273
762;6274
761;6275
761;6276
760;6277
760;6278
760;6279
759;6280
759;6281
760;6282
760;6283
761;6284
762;6285
763;6286
763;6287
764;6288
765;6289
766;6290
767;6291
767;6292
767;6293
766;6294
764;6295
759;6296
756;6297
754;6298
750;6299
747;6300
744;6301
741;6302
740;6303
740;6304
740;6305
741;6306
742;6307
745;6308
748;6309
750;6310
753;6311
755;6312
756;6313
757;6314
758;6315
758;6316
760;6317
760;6318
760;6319
761;6320
761;6321
762;6322
762;6323
763;6324
764;6325
765;6326
768;6327
768;6328
769;6329
770;6330
770;6331
771;6332
772;6333
772;6334
773;6335
773;6336
773;6337
773;6338
772;6339
772;6340
772;6341
772;6342
770;6343
769;6344
766;6345
764;6346
763;6347
762;6348
761;6349
760;6350
756;6351
754;6352
752;6353
750;6354
749;6355
748;6356
746;6357
746;6358
746;6359
745;6360
745;6361
746;6362
747;6363
748;6364
749;6365
750;6366
752;6367
753;6368
754;6369
756;6370
756;6371
757;6372
756;6373
756;6374
755;6375
754;6376
753;6377
752;6378
751;6379
749;6380
747;6381
738;6382
732;6383
725;6384
718;6385
711;6386
705;6387
699;6388
692;6389
690;6390
689;6391
688;6392
688;6393
689;6394
692;6395
694;6396
698;6397
701;6398
706;6399
711;6400
722;6401
728;6402
733;6403
736;6404
738;6405
740;6406
742;6407
743;6408
744;6409
744;6410
744;6411
745;6412
745;6413
745;6414
745;6415
745;6416
744;6417
744;6418
744;6419
743;6420
743;6421
743;6422
742;6423
742;6424
741;6425
741;6426
740;6427
741;6428
742;6429
743;6430
745;6431
748;6432
749;6433
750;6434
752;6435
753;6436
753;6437
754;6438
755;6439
755;6440
755;6441
754;6442
753;6443
751;6444
746;6445
744;6446
741;6447
738;6448
736;6449
735;6450
732;6451
732;6452
732;6453
732;6454
733;6455
734;6456
737;6457
739;6458
741;6459
744;6460
748;6461
751;6462
758;6463
760;6464
762;6465
763;6466
764;6467
764;6468
764;6469
762;6470
761;6471
760;6472
759;6473
759;6474
758;6475
757;6476
756;6477
755;6478
754;6479
752;6480
751;6481
747;6482
746;6483
744;6484
743;6485
741;6486
740;6487
738;6488
737;6489
737;6490
738;6491
739;6492
741;6493
742;6494
744;6495
744;6496
745;6497
745;6498
747;6499
748;6500
747;6501
746;6502
746;6503
745;6504
744;6505
743;6506
743;6507
743;6508
743;6509
745;6510
746;6511
747;6512
752;6513
754;6514
757;6515
759;6516
760;6517
760;6518
760;6519
758;6520
756;6521
754;6522
752;6523
750;6524
748;6525
744;6526
742;6527
739;6528
737;6529
734;6530
731;6531
726;6532
725;6533
725;6534
724;6535
725;6536
726;6537
729;6538
731;6539
733;6540
736;6541
738;6542
741;6543
744;6544
748;6545
751;6546
754;6547
756;6548
758;6549
760;6550
763;6551
763;6552
764;6553
764;6554
764;6555
764;6556
761;6557
757;6558
753;6559
749;6560
746;6561
742;6562
736;6563
733;6564
730;6565
728;6566
725;6567
724;6568
724;6569
724;6570
726;6571
728;6572
730;6573
734;6574
737;6575
744;6576
748;6577
751;6578
753;6579
756;6580
759;6581
762;6582
762;6583
763;6584
763;6585
762;6586
761;6587
758;6588
755;6589
752;6590
749;6591
747;6592
744;6593
740;6594
738;6595
736;6596
735;6597
734;6598
732;6599
730;6600
726;6601
724;6602
722;6603
720;6604
717;6605
715;6606
710;6607
709;6608
708;6609
708;6610
708;6611
708;6612
710;6613
713;6614
716;6615
719;6616
723;6617
726;6618
734;6619
738;6620
742;6621
745;6622
748;6623
750;6624
752;6625
752;6626
752;6627
751;6628
751;6629
750;6630
749;6631
746;6632
745;6633
745;6634
745;6635
745;6636
745;6637
748;6638
749;6639
750;6640
752;6641
752;6642
752;6643
750;6644
748;6645
746;6646
742;6647
739;6648
737;6649
733;6650
732;6651
732;6652
732;6653
732;6654
733;6655
737;6656
739;6657
741;6658
744;6659
746;6660
748;6661
751;6662
755;6663
757;6664
759;6665
761;6666
762;6667
763;6668
764;6669
765;6670
766;6671
767;6672
767;6673
768;6674
769;6675
769;6676
769;6677
770;6678
770;6679
770;6680
770;6681
771;6682
771;6683
771;6684
772;6685
772;6686
773;6687
773;6688
772;6689
772;6690
771;6691
771;6692
770;6693
768;6694
767;6695
767;6696
766;6697
766;6698
765;6699
762;6700
761;6701
760;6702
760;6703
759;6704
759;6705
759;6706
758;6707
758;6708
759;6709
759;6710
757;6711
751;6712
748;6713
745;6714
742;6715
739;6716
736;6717
732;6718
729;6719
727;6720
725;6721
724;6722
723;6723
722;6724
721;6725
720;6726
719;6727
720;6728
720;6729
722;6730
725;6731
725;6732
725;6733
724;6734
723;6735
723;6736
722;6737
722;6738
722;6739
723;6740
725;6741
726;6742
729;6743
731;6744
731;6745
732;6746
732;6747
733;6748
734;6749
733;6750
731;6751
729;6752
728;6753
726;6754
724;6755
722;6756
720;6757
719;6758
719;6759
718;6760
719;6761
721;6762
723;6763
724;6764
727;6765
729;6766
731;6767
735;6768
737;6769
739;6770
741;6771
742;6772
743;6773
744;6774
745;6775
744;6776
743;6777
743;6778
743;6779
742;6780
742;6781
742;6782
742;6783
742;6784
742;6785
743;6786
744;6787
744;6788
744;6789
744;6790
744;6791
744;6792
743;6793
743;6794
742;6795
742;6796
742;6797
742;6798
744;6799
744;6800
744;6801
745;6802
745;6803
744;6804
744;6805
744;6806
744;6807
745;6808
747;6809
747;6810
748;6811
749;6812
750;6813
751;6814
751;6815
752;6816
753;6817
754;6818
755;6819
756;6820
757;6821
758;6822
759;6823
761;6824
761;6825
762;6826
762;6827
763;6828
764;6829
762;6830
761;6831
759;6832
757;6833
756;6834
755;6835
755;6836
753;6837
753;6838
754;6839
754;6840
754;6841
754;6842
754;6843
753;6844
754;6845
753;6846
754;6847
755;6848
756;6849
756;6850
756;6851
755;6852
755;6853
754;6854
753;6855
752;6856
752;6857
749;6858
747;6859
744;6860
739;6861
737;6862
736;6863
735;6864
735;6865
734;6866
734;6867
736;6868
737;6869
738;6870
740;6871
742;6872
743;6873
746;6874
747;6875
749;6876
751;6877
752;6878
753;6879
754;6880
755;6881
756;6882
757;6883
758;6884
758;6885
757;6886
756;6887
754;6888
753;6889
752;6890
752;6891
751;6892
751;6893
750;6894
750;6895
750;6896
750;6897
746;6898
743;6899
739;6900
734;6901
729;6902
724;6903
716;6904
713;6905
710;6906
708;6907
706;6908
705;6909
705;6910
704;6911
705;6912
706;6913
707;6914
709;6915
712;6916
719;6917
723;6918
727;6919
729;6920
731;6921
734;6922
739;6923
741;6924
743;6925
745;6926
746;6927
748;6928
750;6929
751;6930
751;6931
750;6932
750;6933
749;6934
748;6935
748;6936
748;6937
748;6938
748;6939
749;6940
750;6941
751;6942
751;6943
752;6944
753;6945
754;6946
754;6947
756;6948
757;6949
757;6950
757;6951
756;6952
754;6953
747;6954
744;6955
741;6956
739;6957
737;6958
735;6959
731;6960
730;6961
729;6962
729;6963
729;6964
730;6965
731;6966
735;6967
738;6968
740;6969
743;6970
746;6971
749;6972
753;6973
755;6974
757;6975
759;6976
760;6977
761;6978
761;6979
761;6980
761;6981
761;6982
759;6983
758;6984
755;6985
753;6986
751;6987
749;6988
747;6989
745;6990
742;6991
740;6992
738;6993
737;6994
736;6995
735;6996
736;6997
737;6998
739;6999
741;7000
743;7001
746;7002
748;7003
753;7004
755;7005
757;7006
758;7007
758;7008
758;7009
759;7010
759;7011
760;7012
761;7013
762;7014
763;7015
764;7016
765;7017
766;7018
767;7019
768;7020
768;7021
769;7022
770;7023
770;7024
769;7025
767;7026
765;7027
761;7028
752;7029
746;7030
740;7031
735;7032
730;7033
725;7034
718;7035
715;7036
713;7037
712;7038
711;7039
712;7040
714;7041
716;7042
719;7043
722;7044
725;7045
728;7046
735;7047
738;7048
741;7049
743;7050
745;7051
746;7052
747;7053
748;7054
748;7055
748;7056
749;7057
749;7058
750;7059
751;7060
751;7061
753;7062
754;7063
755;7064
756;7065
759;7066
760;7067
762;7068
763;7069
762;7070
760;7071
752;7072
746;7073
741;7074
735;7075
728;7076
721;7077
711;7078
707;7079
704;7080
702;7081
701;7082
701;7083
704;7084
706;7085
708;7086
710;7087
712;7088
714;7089
720;7090
723;7091
725;7092
727;7093
729;7094
731;7095
735;7096
736;7097
737;7098
738;7099
740;7100
741;7101
742;7102
744;7103
746;7104
747;7105
748;7106
748;7107
749;7108
749;7109
748;7110
748;7111
747;7112
745;7113
744;7114
741;7115
740;7116
740;7117
739;7118
739;7119
739;7120
739;7121
737;7122
735;7123
734;7124
732;7125
731;7126
732;7127
733;7128
733;7129
735;7130
735;7131
735;7132
736;7133
738;7134
739;7135
741;7136
742;7137
744;7138
745;7139
749;7140
750;7141
751;7142
753;7143
754;7144
755;7145
758;7146
759;7147
761;7148
762;7149
763;7150
764;7151
765;7152
766;7153
766;7154
766;7155
766;7156
765;7157
765;7158
761;7159
758;7160
753;7161
749;7162
745;7163
741;7164
733;7165
730;7166
727;7167
724;7168
722;7169
721;7170
720;7171
721;7172
722;7173
724;7174
725;7175
727;7176
731;7177
733;7178
733;7179
735;7180
736;7181
736;7182
737;7183
740;7184
741;7185
743;7186
744;7187
745;7188
747;7189
749;7190
751;7191
752;7192
753;7193
755;7194
756;7195
759;7196
760;7197
760;7198
760;7199
761;7200
762;7201
762;7202
762;7203
762;7204
762;7205
762;7206
761;7207
759;7208
758;7209
756;7210
754;7211
752;7212
752;7213
751;7214
751;7215
751;7216
752;7217
753;7218
754;7219
757;7220
758;7221
760;7222
762;7223
763;7224
764;7225
763;7226
759;7227
756;7228
752;7229
749;7230
746;7231
743;7232
737;7233
735;7234
734;7235
734;7236
733;7237
734;7238
736;7239
737;7240
739;7241
741;7242
743;7243
745;7244
748;7245
749;7246
751;7247
753;7248
754;7249
755;7250
757;7251
758;7252
759;7253
761;7254
762;7255
763;7256
765;7257
766;7258
766;7259
767;7260
767;7261
767;7262
768;7263
767;7264
766;7265
765;7266
764;7267
762;7268
759;7269
757;7270
756;7271
755;7272
754;7273
753;7274
753;7275
753;7276
753;7277
753;7278
752;7279
750;7280
747;7281
739;7282
735;7283
731;7284
728;7285
725;7286
722;7287
716;7288
714;7289
712;7290
711;7291
711;7292
711;7293
715;7294
717;7295
720;7296
723;7297
726;7298
730;7299
734;7300
740;7301
742;7302
745;7303
747;7304
749;7305
750;7306
752;7307
751;7308
748;7309
745;7310
740;7311
735;7312
725;7313
721;7314
718;7315
715;7316
713;7317
712;7318
712;7319
713;7320
715;7321
718;7322
722;7323
725;7324
729;7325
736;7326
740;7327
743;7328
747;7329
750;7330
753;7331
757;7332
759;7333
760;7334
761;7335
762;7336
762;7337
760;7338
757;7339
756;7340
754;7341
752;7342
751;7343
749;7344
748;7345
747;7346
747;7347
748;7348
748;7349
749;7350
750;7351
752;7352
753;7353
754;7354
755;7355
756;7356
756;7357
755;7358
756;7359
756;7360
757;7361
758;7362
760;7363
761;7364
763;7365
764;7366
765;7367
766;7368
765;7369
764;7370
762;7371
760;7372
757;7373
755;7374
750;7375
747;7376
744;7377
740;7378
737;7379
733;7380
728;7381
727;7382
725;7383
725;7384
724;7385
725;7386
726;7387
730;7388
732;7389
734;7390
736;7391
738;7392
739;7393
742;7394
744;7395
747;7396
748;7397
750;7398
751;7399
754;7400
755;7401
757;7402
758;7403
759;7404
759;7405
760;7406
761;7407
762;7408
762;7409
762;7410
763;7411
763;7412
763;7413
764;7414
764;7415
765;7416
765;7417
765;7418
765;7419
765;7420
765;7421
766;7422
766;7423
766;7424
763;7425
762;7426
760;7427
757;7428
753;7429
750;7430
744;7431
741;7432
738;7433
736;7434
733;7435
732;7436
732;7437
731;7438
731;7439
732;7440
733;7441
734;7442
735;7443
735;7444
735;7445
735;7446
735;7447
736;7448
736;7449
736;7450
737;7451
737;7452
739;7453
740;7454
742;7455
743;7456
742;7457
741;7458
740;7459
737;7460
735;7461
730;7462
721;7463
717;7464
714;7465
711;7466
710;7467
709;7468
709;7469
710;7470
711;7471
714;7472
717;7473
720;7474
727;7475
731;7476
735;7477
740;7478
744;7479
747;7480
753;7481
755;7482
757;7483
759;7484
761;7485
762;7486
765;7487
766;7488
766;7489
766;7490
766;7491
766;7492
765;7493
764;7494
762;7495
761;7496
758;7497
756;7498
754;7499
751;7500
749;7501
748;7502
747;7503
745;7504
744;7505
741;7506
740;7507
739;7508
738;7509
738;7510
738;7511
738;7512
739;7513
739;7514
739;7515
738;7516
738;7517
738;7518
739;7519
740;7520
742;7521
744;7522
746;7523
748;7524
750;7525
750;7526
752;7527
752;7528
753;7529
754;7530
754;7531
752;7532
750;7533
748;7534
746;7535
745;7536
742;7537
741;7538
740;7539
738;7540
736;7541
734;7542
731;7543
725;7544
723;7545
722;7546
721;7547
721;7548
721;7549
723;7550
725;7551
726;7552
728;7553
731;7554
734;7555
741;7556
745;7557
749;7558
753;7559
755;7560
756;7561
759;7562
759;7563
759;7564
758;7565
757;7566
757;7567
756;7568
756;7569
756;7570
756;7571
757;7572
757;7573
758;7574
760;7575
761;7576
762;7577
763;7578
763;7579
764;7580
763;7581
763;7582
762;7583
762;7584
762;7585
761;7586
761;7587
760;7588
760;7589
760;7590
760;7591
760;7592
761;7593
761;7594
761;7595
762;7596
762;7597
763;7598
764;7599
765;7600
766;7601
766;7602
766;7603
766;7604
766;7605
767;7606
767;7607
767;7608
766;7609
766;7610
765;7611
761;7612
758;7613
755;7614
752;7615
749;7616
746;7617
741;7618
740;7619
736;7620
733;7621
730;7622
726;7623
722;7624
721;7625
721;7626
721;7627
721;7628
721;7629
723;7630
726;7631
728;7632
730;7633
733;7634
736;7635
739;7636
744;7637
746;7638
749;7639
750;7640
749;7641
749;7642
747;7643
746;7644
744;7645
743;7646
742;7647
741;7648
740;7649
740;7650
740;7651
739;7652
737;7653
736;7654
732;7655
729;7656
727;7657
723;7658
720;7659
717;7660
714;7661
712;7662
712;7663
712;7664
712;7665
713;7666
715;7667
719;7668
722;7669
725;7670
727;7671
731;7672
734;7673
741;7674
743;7675
746;7676
749;7677
750;7678
752;7679
754;7680
754;7681
753;7682
751;7683
749;7684
748;7685
747;7686
746;7687
747;7688
747;7689
747;7690
748;7691
749;7692
750;7693
751;7694
753;7695
754;7696
756;7697
757;7698
760;7699
761;7700
762;7701
764;7702
765;7703
767;7704
768;7705
770;7706
770;7707
771;7708
771;7709
772;7710
772;7711
772;7712
773;7713
772;7714
772;7715
772;7716
770;7717
769;7718
767;7719
766;7720
765;7721
764;7722
764;7723
763;7724
762;7725
762;7726
761;7727
760;7728
759;7729
755;7730
753;7731
752;7732
750;7733
748;7734
747;7735
745;7736
744;7737
743;7738
742;7739
741;7740
739;7741
736;7742
735;7743
735;7744
736;7745
736;7746
738;7747
741;7748
743;7749
744;7750
746;7751
748;7752
750;7753
753;7754
756;7755
755;7756
754;7757
752;7758
750;7759
748;7760
745;7761
743;7762
742;7763
740;7764
738;7765
738;7766
738;7767
739;7768
740;7769
742;7770
745;7771
748;7772
754;7773
757;7774
760;7775
763;7776
766;7777
769;7778
773;7779
774;7780
774;7781
775;7782
774;7783
773;7784
770;7785
767;7786
765;7787
763;7788
761;7789
759;7790
756;7791
755;7792
754;7793
753;7794
751;7795
749;7796
744;7797
741;7798
738;7799
735;7800
733;7801
731;7802
729;7803
726;7804
726;7805
726;7806
726;7807
727;7808
728;7809
730;7810
732;7811
734;7812
735;7813
737;7814
738;7815
739;7816
739;7817
740;7818
742;7819
743;7820
744;7821
745;7822
745;7823
746;7824
745;7825
745;7826
745;7827
745;7828
745;7829
744;7830
743;7831
743;7832
742;7833
742;7834
742;7835
742;7836
742;7837
744;7838
745;7839
746;7840
749;7841
750;7842
752;7843
754;7844
757;7845
759;7846
764;7847
765;7848
766;7849
767;7850
767;7851
767;7852
767;7853
767;7854
766;7855
764;7856
761;7857
759;7858
758;7859
754;7860
753;7861
752;7862
750;7863
749;7864
748;7865
746;7866
746;7867
746;7868
746;7869
746;7870
746;7871
742;7872
738;7873
734;7874
730;7875
727;7876
723;7877
718;7878
717;7879
717;7880
718;7881
719;7882
720;7883
725;7884
727;7885
729;7886
733;7887
736;7888
739;7889
746;7890
749;7891
751;7892
752;7893
753;7894
752;7895
749;7896
746;7897
745;7898
743;7899
741;7900
740;7901
739;7902
739;7903
739;7904
739;7905
739;7906
740;7907
741;7908
743;7909
745;7910
746;7911
748;7912
749;7913
751;7914
754;7915
756;7916
757;7917
759;7918
760;7919
762;7920
763;7921
764;7922
765;7923
765;7924
766;7925
766;7926
766;7927
767;7928
767;7929
767;7930
766;7931
765;7932
764;7933
760;7934
757;7935
755;7936
752;7937
749;7938
745;7939
739;7940
736;7941
734;7942
733;7943
732;7944
732;7945
732;7946
733;7947
734;7948
735;7949
736;7950
738;7951
743;7952
746;7953
748;7954
751;7955
753;7956
755;7957
757;7958
761;7959
763;7960
764;7961
765;7962
765;7963
766;7964
765;7965
765;7966
765;7967
764;7968
761;7969
759;7970
755;7971
752;7972
749;7973
746;7974
741;7975
737;7976
728;7977
724;7978
719;7979
715;7980
713;7981
711;7982
710;7983
710;7984
712;7985
713;7986
715;7987
717;7988
720;7989
728;7990
732;7991
736;7992
740;7993
743;7994
746;7995
752;7996
755;7997
756;7998
758;7999
760;8000
761;8001
765;8002
766;8003
767;8004
769;8005
770;8006
771;8007
772;8008
772;8009
773;8010
773;8011
773;8012
773;8013
773;8014
773;8015
772;8016
773;8017
773;8018
773;8019
773;8020
771;8021
768;8022
764;8023
761;8024
756;8025
752;8026
747;8027
745;8028
744;8029
743;8030
742;8031
742;8032
744;8033
745;8034
746;8035
748;8036
750;8037
752;8038
757;8039
760;8040
762;8041
764;8042
764;8043
765;8044
765;8045
766;8046
766;8047
766;8048
766;8049
765;8050
763;8051
761;8052
760;8053
758;8054
756;8055
754;8056
752;8057
747;8058
745;8059
743;8060
743;8061
742;8062
742;8063
743;8064
744;8065
745;8066
746;8067
748;8068
749;8069
753;8070
754;8071
757;8072
758;8073
758;8074
757;8075
755;8076
754;8077
754;8078
753;8079
752;8080
751;8081
751;8082
751;8083
752;8084
752;8085
753;8086
753;8087
753;8088
752;8089
753;8090
752;8091
752;8092
751;8093
751;8094
749;8095
749;8096
749;8097
748;8098
748;8099
747;8100
743;8101
740;8102
736;8103
732;8104
729;8105
727;8106
723;8107
721;8108
720;8109
719;8110
719;8111
720;8112
721;8113
724;8114
726;8115
729;8116
731;8117
735;8118
738;8119
743;8120
744;8121
746;8122
747;8123
746;8124
745;8125
743;8126
743;8127
743;8128
744;8129
745;8130
745;8131
747;8132
748;8133
748;8134
749;8135
749;8136
750;8137
751;8138
752;8139
751;8140
749;8141
748;8142
747;8143
746;8144
746;8145
746;8146
746;8147
747;8148
748;8149
749;8150
750;8151
750;8152
750;8153
751;8154
751;8155
752;8156
753;8157
753;8158
752;8159
751;8160
750;8161
749;8162
748;8163
748;8164
748;8165
749;8166
749;8167
750;8168
752;8169
753;8170
754;8171
755;8172
756;8173
757;8174
759;8175
761;8176
763;8177
764;8178
765;8179
767;8180
768;8181
770;8182
771;8183
771;8184
772;8185
772;8186
773;8187
773;8188
773;8189
773;8190
771;8191
770;8192
768;8193
765;8194
763;8195
761;8196
759;8197
757;8198
754;8199
748;8200
744;8201
740;8202
736;8203
732;8204
730;8205
727;8206
722;8207
719;8208
718;8209
717;8210
716;8211
717;8212
720;8213
723;8214
725;8215
728;8216
729;8217
730;8218
732;8219
732;8220
733;8221
735;8222
736;8223
737;8224
738;8225
739;8226
740;8227
742;8228
743;8229
745;8230
746;8231
750;8232
751;8233
752;8234
753;8235
754;8236
754;8237
754;8238
753;8239
752;8240
751;8241
749;8242
749;8243
748;8244
747;8245
748;8246
748;8247
749;8248
750;8249
750;8250
750;8251
750;8252
750;8253
750;8254
751;8255
750;8256
751;8257
752;8258
753;8259
753;8260
754;8261
754;8262
753;8263
752;8264
750;8265
747;8266
744;8267
741;8268
735;8269
733;8270
731;8271
729;8272
728;8273
727;8274
726;8275
727;8276
728;8277
730;8278
731;8279
734;8280
738;8281
741;8282
744;8283
747;8284
750;8285
752;8286
756;8287
758;8288
758;8289
759;8290
757;8291
757;8292
756;8293
754;8294
754;8295
753;8296
752;8297
752;8298
749;8299
747;8300
742;8301
736;8302
728;8303
720;8304
713;8305
699;8306
694;8307
690;8308
687;8309
685;8310
684;8311
687;8312
689;8313
692;8314
696;8315
700;8316
705;8317
710;8318
720;8319
725;8320
730;8321
734;8322
738;8323
741;8324
746;8325
748;8326
750;8327
750;8328
751;8329
752;8330
753;8331
753;8332
754;8333
755;8334
756;8335
756;8336
757;8337
757;8338
758;8339
759;8340
759;8341
760;8342
762;8343
763;8344
764;8345
766;8346
768;8347
769;8348
770;8349
772;8350
773;8351
774;8352
775;8353
776;8354
776;8355
777;8356
776;8357
776;8358
775;8359
774;8360
773;8361
770;8362
768;8363
767;8364
765;8365
764;8366
763;8367
761;8368
760;8369
760;8370
759;8371
758;8372
758;8373
756;8374
755;8375
754;8376
752;8377
750;8378
747;8379
744;8380
737;8381
734;8382
731;8383
729;8384
728;8385
727;8386
727;8387
728;8388
730;8389
731;8390
732;8391
733;8392
735;8393
737;8394
739;8395
742;8396
745;8397
747;8398
751;8399
754;8400
755;8401
757;8402
758;8403
759;8404
759;8405
758;8406
758;8407
756;8408
755;8409
754;8410
752;8411
747;8412
745;8413
743;8414
741;8415
740;8416
739;8417
737;8418
737;8419
736;8420
735;8421
734;8422
733;8423
731;8424
730;8425
730;8426
730;8427
730;8428
731;8429
733;8430
735;8431
737;8432
739;8433
740;8434
742;8435
746;8436
747;8437
748;8438
749;8439
750;8440
750;8441
752;8442
752;8443
752;8444
753;8445
753;8446
754;8447
754;8448
755;8449
756;8450
757;8451
758;8452
758;8453
759;8454
759;8455
759;8456
758;8457
758;8458
757;8459
755;8460
753;8461
751;8462
750;8463
749;8464
749;8465
749;8466
749;8467
749;8468
750;8469
751;8470
752;8471
753;8472
755;8473
755;8474
756;8475
755;8476
755;8477
754;8478
754;8479
752;8480
752;8481
752;8482
752;8483
751;8484
750;8485
748;8486
746;8487
745;8488
745;8489
745;8490
745;8491
747;8492
748;8493
749;8494
750;8495
751;8496
752;8497
755;8498
757;8499
758;8500
760;8501
761;8502
761;8503
762;8504
761;8505
761;8506
761;8507
760;8508
760;8509
758;8510
756;8511
753;8512
751;8513
748;8514
745;8515
738;8516
736;8517
735;8518
734;8519
734;8520
735;8521
736;8522
740;8523
742;8524
745;8525
748;8526
751;8527
753;8528
752;8529
751;8530
749;8531
747;8532
744;8533
741;8534
734;8535
730;8536
726;8537
723;8538
721;8539
719;8540
718;8541
717;8542
717;8543
718;8544
719;8545
720;8546
723;8547
725;8548
727;8549
729;8550
731;8551
734;8552
736;8553
740;8554
742;8555
743;8556
745;8557
746;8558
746;8559
745;8560
744;8561
743;8562
740;8563
737;8564
732;8565
726;8566
723;8567
720;8568
718;8569
717;8570
716;8571
718;8572
719;8573
721;8574
724;8575
727;8576
731;8577
734;8578
740;8579
744;8580
747;8581
749;8582
752;8583
755;8584
758;8585
758;8586
757;8587
756;8588
755;8589
753;8590
749;8591
747;8592
744;8593
742;8594
740;8595
739;8596
738;8597
738;8598
738;8599
739;8600
739;8601
741;8602
743;8603
745;8604
747;8605
749;8606
751;8607
753;8608
755;8609
759;8610
760;8611
762;8612
762;8613
763;8614
764;8615
764;8616
764;8617
765;8618
765;8619
765;8620
765;8621
765;8622
765;8623
764;8624
763;8625
761;8626
759;8627
756;8628
755;8629
754;8630
753;8631
753;8632
753;8633
755;8634
756;8635
757;8636
759;8637
760;8638
761;8639
762;8640
764;8641
764;8642
765;8643
766;8644
765;8645
765;8646
763;8647
763;8648
762;8649
762;8650
761;8651
762;8652
762;8653
762;8654
762;8655
763;8656
763;8657
764;8658
764;8659
763;8660
762;8661
758;8662
755;8663
751;8664
743;8665
739;8666
736;8667
733;8668
730;8669
729;8670
728;8671
727;8672
728;8673
729;8674
731;8675
732;8676
734;8677
739;8678
741;8679
743;8680
746;8681
748;8682
751;8683
754;8684
754;8685
754;8686
754;8687
754;8688
752;8689
748;8690
745;8691
742;8692
739;8693
736;8694
734;8695
731;8696
726;8697
723;8698
720;8699
717;8700
714;8701
711;8702
708;8703
708;8704
709;8705
710;8706
712;8707
714;8708
720;8709
724;8710
727;8711
730;8712
733;8713
735;8714
738;8715
740;8716
739;8717
737;8718
734;8719
731;8720
728;8721
720;8722
717;8723
714;8724
713;8725
712;8726
712;8727
714;8728
716;8729
718;8730
721;8731
724;8732
727;8733
734;8734
737;8735
740;8736
741;8737
742;8738
743;8739
745;8740
746;8741
747;8742
749;8743
751;8744
752;8745
754;8746
757;8747
758;8748
759;8749
760;8750
761;8751
761;8752
761;8753
760;8754
759;8755
757;8756
756;8757
754;8758
751;8759
749;8760
748;8761
747;8762
746;8763
745;8764
743;8765
742;8766
742;8767
742;8768
742;8769
742;8770
743;8771
744;8772
745;8773
746;8774
746;8775
745;8776
745;8777
746;8778
746;8779
747;8780
747;8781
747;8782
747;8783
747;8784
748;8785
748;8786
749;8787
749;8788
749;8789
751;8790
751;8791
752;8792
752;8793
752;8794
751;8795
752;8796
752;8797
752;8798
752;8799
753;8800
753;8801
754;8802
755;8803
755;8804
755;8805
756;8806
756;8807
757;8808
757;8809
757;8810
757;8811
757;8812
758;8813
758;8814
758;8815
758;8816
757;8817
758;8818
758;8819
758;8820
756;8821
755;8822
754;8823
752;8824
751;8825
750;8826
749;8827
748;8828
748;8829
747;8830
746;8831
745;8832
743;8833
742;8834
741;8835
741;8836
741;8837
741;8838
741;8839
742;8840
743;8841
743;8842
744;8843
744;8844
745;8845
744;8846
743;8847
742;8848
741;8849
741;8850
741;8851
739;8852
738;8853
737;8854
735;8855
734;8856
733;8857
733;8858
734;8859
735;8860
736;8861
737;8862
738;8863
741;8864
742;8865
743;8866
745;8867
746;8868
747;8869
751;8870
752;8871
752;8872
754;8873
753;8874
752;8875
751;8876
745;8877
743;8878
742;8879
740;8880
739;8881
738;8882
736;8883
735;8884
735;8885
734;8886
734;8887
735;8888
736;8889
736;8890
736;8891
737;8892
737;8893
738;8894
736;8895
734;8896
732;8897
731;8898
730;8899
729;8900
729;8901
729;8902
730;8903
731;8904
732;8905
733;8906
734;8907
736;8908
736;8909
737;8910
739;8911
740;8912
741;8913
745;8914
747;8915
748;8916
749;8917
750;8918
751;8919
752;8920
753;8921
754;8922
755;8923
755;8924
756;8925
754;8926
750;8927
746;8928
742;8929
738;8930
735;8931
732;8932
726;8933
724;8934
723;8935
722;8936
722;8937
722;8938
725;8939
727;8940
730;8941
732;8942
735;8943
738;8944
744;8945
747;8946
749;8947
751;8948
752;8949
754;8950
755;8951
755;8952
755;8953
753;8954
751;8955
750;8956
748;8957
746;8958
746;8959
746;8960
747;8961
747;8962
749;8963
752;8964
754;8965
755;8966
757;8967
759;8968
761;8969
764;8970
765;8971
766;8972
767;8973
766;8974
766;8975
766;8976
766;8977
765;8978
765;8979
764;8980
763;8981
761;8982
758;8983
756;8984
754;8985
752;8986
750;8987
748;8988
747;8989
747;8990
747;8991
746;8992
746;8993
746;8994
745;8995
743;8996
742;8997
740;8998
738;8999
737;9000
735;9001
734;9002
734;9003
733;9004
734;9005
734;9006
736;9007
737;9008
738;9009
739;9010
740;9011
741;9012
743;9013
744;9014
744;9015
745;9016
746;9017
748;9018
749;9019
751;9020
752;9021
752;9022
753;9023
754;9024
755;9025
757;9026
757;9027
758;9028
757;9029
758;9030
759;9031
759;9032
759;9033
759;9034
759;9035
758;9036
757;9037
753;9038
751;9039
749;9040
746;9041
743;9042
741;9043
737;9044
736;9045
735;9046
735;9047
734;9048
733;9049
734;9050
735;9051
735;9052
736;9053
738;9054
739;9055
740;9056
743;9057
744;9058
745;9059
744;9060
742;9061
740;9062
734;9063
731;9064
729;9065
727;9066
725;9067
724;9068
725;9069
726;9070
728;9071
729;9072
731;9073
733;9074
737;9075
739;9076
742;9077
744;9078
746;9079
748;9080
752;9081
753;9082
755;9083
756;9084
757;9085
759;9086
762;9087
763;9088
765;9089
766;9090
767;9091
768;9092
768;9093
768;9094
768;9095
767;9096
765;9097
763;9098
760;9099
752;9100
749;9101
744;9102
739;9103
734;9104
730;9105
723;9106
719;9107
717;9108
715;9109
713;9110
711;9111
709;9112
709;9113
709;9114
710;9115
712;9116
714;9117
719;9118
723;9119
725;9120
728;9121
732;9122
736;9123
739;9124
746;9125
749;9126
751;9127
753;9128
754;9129
754;9130
753;9131
751;9132
750;9133
749;9134
749;9135
749;9136
748;9137
748;9138
747;9139
746;9140
746;9141
746;9142
747;9143
748;9144
749;9145
750;9146
751;9147
752;9148
754;9149
755;9150
756;9151
757;9152
758;9153
759;9154
761;9155
763;9156
764;9157
765;9158
764;9159
763;9160
761;9161
752;9162
747;9163
743;9164
739;9165
735;9166
733;9167
729;9168
728;9169
727;9170
727;9171
728;9172
729;9173
729;9174
730;9175
731;9176
731;9177
731;9178
730;9179
728;9180
725;9181
724;9182
722;9183
721;9184
720;9185
720;9186
722;9187
723;9188
725;9189
727;9190
730;9191
733;9192
739;9193
743;9194
745;9195
748;9196
751;9197
754;9198
759;9199
762;9200
763;9201
764;9202
765;9203
764;9204
763;9205
762;9206
761;9207
760;9208
759;9209
759;9210
759;9211
759;9212
759;9213
759;9214
760;9215
761;9216
763;9217
766;9218
767;9219
769;9220
770;9221
771;9222
772;9223
772;9224
771;9225
770;9226
768;9227
766;9228
765;9229
763;9230
761;9231
760;9232
760;9233
760;9234
759;9235
758;9236
757;9237
757;9238
756;9239
756;9240
757;9241
756;9242
756;9243
756;9244
756;9245
756;9246
757;9247
757;9248
757;9249
757;9250
757;9251
757;9252
757;9253
757;9254
757;9255
758;9256
758;9257
758;9258
759;9259
759;9260
761;9261
763;9262
764;9263
765;9264
765;9265
765;9266
764;9267
762;9268
760;9269
758;9270
757;9271
755;9272
754;9273
751;9274
748;9275
746;9276
743;9277
741;9278
737;9279
727;9280
723;9281
719;9282
716;9283
714;9284
713;9285
715;9286
716;9287
718;9288
722;9289
725;9290
729;9291
736;9292
740;9293
744;9294
746;9295
749;9296
751;9297
752;9298
753;9299
753;9300
752;9301
752;9302
752;9303
753;9304
753;9305
754;9306
755;9307
756;9308
757;9309
757;9310
758;9311
758;9312
757;9313
755;9314
754;9315
753;9316
751;9317
750;9318
749;9319
747;9320
745;9321
743;9322
737;9323
732;9324
728;9325
724;9326
721;9327
719;9328
717;9329
716;9330
716;9331
716;9332
718;9333
719;9334
721;9335
725;9336
729;9337
732;9338
735;9339
738;9340
742;9341
747;9342
749;9343
751;9344
753;9345
755;9346
757;9347
760;9348
761;9349
761;9350
762;9351
761;9352
761;9353
761;9354
760;9355
758;9356
758;9357
757;9358
757;9359
757;9360
757;9361
757;9362
757;9363
758;9364
759;9365
760;9366
763;9367
763;9368
764;9369
765;9370
766;9371
765;9372
761;9373
758;9374
755;9375
753;9376
751;9377
749;9378
748;9379
747;9380
746;9381
747;9382
748;9383
748;9384
750;9385
752;9386
754;9387
757;9388
758;9389
760;9390
762;9391
765;9392
766;9393
766;9394
765;9395
763;9396
762;9397
759;9398
758;9399
757;9400
755;9401
752;9402
748;9403
742;9404
739;9405
737;9406
736;9407
735;9408
735;9409
736;9410
737;9411
738;9412
739;9413
740;9414
741;9415
743;9416
748;9417
749;9418
752;9419
754;9420
755;9421
757;9422
760;9423
760;9424
760;9425
760;9426
761;9427
762;9428
764;9429
765;9430
766;9431
767;9432
768;9433
769;9434
768;9435
767;9436
766;9437
765;9438
764;9439
763;9440
763;9441
761;9442
761;9443
760;9444
760;9445
760;9446
760;9447
760;9448
761;9449
762;9450
763;9451
764;9452
764;9453
765;9454
765;9455
765;9456
764;9457
763;9458
763;9459
760;9460
758;9461
757;9462
755;9463
754;9464
752;9465
751;9466
748;9467
747;9468
746;9469
745;9470
745;9471
745;9472
746;9473
746;9474
747;9475
748;9476
748;9477
749;9478
751;9479
752;9480
753;9481
754;9482
754;9483
756;9484
757;9485
757;9486
757;9487
755;9488
753;9489
751;9490
747;9491
745;9492
742;9493
740;9494
738;9495
734;9496
730;9497
724;9498
722;9499
720;9500
720;9501
720;9502
719;9503
719;9504
718;9505
717;9506
717;9507
716;9508
716;9509
717;9510
719;9511
720;9512
722;9513
725;9514
726;9515
732;9516
735;9517
738;9518
742;9519
744;9520
747;9521
750;9522
755;9523
757;9524
759;9525
760;9526
759;9527
758;9528
754;9529
751;9530
750;9531
748;9532
747;9533
746;9534
744;9535
740;9536
737;9537
733;9538
729;9539
726;9540
722;9541
717;9542
716;9543
714;9544
713;9545
714;9546
714;9547
717;9548
720;9549
723;9550
726;9551
730;9552
734;9553
743;9554
747;9555
752;9556
755;9557
758;9558
760;9559
764;9560
765;9561
767;9562
769;9563
771;9564
772;9565
773;9566
773;9567
773;9568
773;9569
773;9570
773;9571
772;9572
772;9573
771;9574
770;9575
769;9576
768;9577
766;9578
765;9579
764;9580
763;9581
762;9582
761;9583
761;9584
759;9585
759;9586
759;9587
759;9588
759;9589
760;9590
760;9591
761;9592
762;9593
763;9594
763;9595
764;9596
765;9597
765;9598
764;9599
764;9600
763;9601
763;9602
762;9603
762;9604
761;9605
761;9606
761;9607
759;9608
757;9609
752;9610
749;9611
747;9612
746;9613
744;9614
742;9615
738;9616
737;9617
736;9618
736;9619
736;9620
736;9621
738;9622
739;9623
740;9624
742;9625
744;9626
745;9627
749;9628
751;9629
752;9630
753;9631
754;9632
754;9633
753;9634
751;9635
749;9636
746;9637
743;9638
740;9639
734;9640
732;9641
730;9642
728;9643
725;9644
722;9645
717;9646
715;9647
714;9648
714;9649
714;9650
714;9651
714;9652
716;9653
718;9654
720;9655
723;9656
726;9657
729;9658
736;9659
740;9660
743;9661
746;9662
749;9663
751;9664
756;9665
759;9666
761;9667
763;9668
764;9669
765;9670
766;9671
765;9672
765;9673
765;9674
766;9675
767;9676
768;9677
768;9678
769;9679
768;9680
767;9681
766;9682
764;9683
763;9684
761;9685
759;9686
756;9687
754;9688
750;9689
747;9690
744;9691
741;9692
739;9693
736;9694
735;9695
733;9696
732;9697
732;9698
732;9699
733;9700
734;9701
738;9702
740;9703
742;9704
743;9705
745;9706
746;9707
749;9708
751;9709
752;9710
753;9711
754;9712
755;9713
755;9714
755;9715
756;9716
756;9717
756;9718
756;9719
756;9720
756;9721
757;9722
757;9723
758;9724
759;9725
762;9726
763;9727
763;9728
763;9729
763;9730
763;9731
761;9732
759;9733
757;9734
754;9735
751;9736
749;9737
746;9738
743;9739
741;9740
739;9741
738;9742
738;9743
738;9744
740;9745
741;9746
742;9747
743;9748
744;9749
745;9750
746;9751
747;9752
747;9753
748;9754
747;9755
747;9756
746;9757
745;9758
744;9759
743;9760
742;9761
741;9762
739;9763
739;9764
739;9765
739;9766
739;9767
740;9768
741;9769
738;9770
737;9771
736;9772
735;9773
735;9774
736;9775
737;9776
738;9777
738;9778
739;9779
740;9780
742;9781
746;9782
747;9783
750;9784
752;9785
754;9786
755;9787
758;9788
759;9789
760;9790
761;9791
761;9792
761;9793
760;9794
759;9795
758;9796
757;9797
758;9798
758;9799
758;9800
757;9801
757;9802
756;9803
756;9804
756;9805
757;9806
758;9807
758;9808
758;9809
758;9810
758;9811
758;9812
758;9813
757;9814
757;9815
755;9816
754;9817
752;9818
748;9819
746;9820
744;9821
742;9822
741;9823
740;9824
740;9825
739;9826
739;9827
738;9828
738;9829
737;9830
732;9831
730;9832
728;9833
727;9834
726;9835
726;9836
726;9837
726;9838
727;9839
728;9840
729;9841
730;9842
731;9843
732;9844
732;9845
731;9846
731;9847
730;9848
728;9849
721;9850
719;9851
717;9852
716;9853
715;9854
715;9855
716;9856
721;9857
724;9858
727;9859
730;9860
733;9861
735;9862
740;9863
743;9864
745;9865
747;9866
748;9867
750;9868
750;9869
750;9870
749;9871
748;9872
747;9873
747;9874
747;9875
747;9876
747;9877
747;9878
748;9879
749;9880
749;9881
749;9882
750;9883
751;9884
752;9885
753;9886
754;9887
757;9888
758;9889
760;9890
760;9891
760;9892
761;9893
762;9894
762;9895
763;9896
763;9897
763;9898
762;9899
759;9900
757;9901
755;9902
754;9903
752;9904
750;9905
746;9906
745;9907
744;9908
744;9909
743;9910
744;9911
744;9912
747;9913
748;9914
748;9915
748;9916
747;9917
745;9918
742;9919
740;9920
740;9921
739;9922
739;9923
738;9924
738;9925
738;9926
737;9927
737;9928
738;9929
739;9930
741;9931
742;9932
744;9933
745;9934
747;9935
749;9936
750;9937
750;9938
750;9939
751;9940
751;9941
750;9942
748;9943
748;9944
747;9945
747;9946
747;9947
748;9948
748;9949
749;9950
750;9951
751;9952
752;9953
753;9954
753;9955
754;9956
755;9957
756;9958
757;9959
759;9960
760;9961
763;9962
764;9963
765;9964
765;9965
765;9966
765;9967
764;9968
764;9969
763;9970
761;9971
760;9972
758;9973
756;9974
755;9975
754;9976
753;9977
750;9978
747;9979
742;9980
732;9981
726;9982
722;9983
718;9984
716;9985
714;9986
712;9987
711;9988
712;9989
713;9990
715;9991
717;9992
721;9993
724;9994
726;9995
728;9996
730;9997
731;9998
731;9999
731;10000
731;10001
731;10002
731;10003
731;10004
731;10005
729;10006
727;10007
726;10008
725;10009
725;10010
725;10011
725;10012
726;10013
726;10014
726;10015
726;10016
726;10017
728;10018
726;10019
722;10020
719;10021
716;10022
713;10023
710;10024
710;10025
711;10026
712;10027
713;10028
715;10029
717;10030
723;10031
727;10032
731;10033
735;10034
740;10035
744;10036
751;10037
753;10038
755;10039
757;10040
759;10041
761;10042
765;10043
766;10044
768;10045
770;10046
771;10047
771;10048
771;10049
771;10050
770;10051
769;10052
768;10053
766;10054
762;10055
760;10056
759;10057
758;10058
757;10059
757;10060
757;10061
757;10062
758;10063
759;10064
760;10065
762;10066
766;10067
767;10068
769;10069
770;10070
771;10071
771;10072
770;10073
766;10074
763;10075
759;10076
756;10077
751;10078
746;10079
735;10080
730;10081
724;10082
719;10083
716;10084
712;10085
707;10086
707;10087
706;10088
707;10089
708;10090
710;10091
713;10092
715;10093
718;10094
720;10095
722;10096
724;10097
730;10098
733;10099
736;10100
739;10101
742;10102
745;10103
748;10104
752;10105
754;10106
756;10107
758;10108
759;10109
761;10110
765;10111
767;10112
768;10113
769;10114
770;10115
771;10116
772;10117
773;10118
774;10119
774;10120
774;10121
774;10122
772;10123
771;10124
770;10125
767;10126
765;10127
763;10128
759;10129
757;10130
757;10131
756;10132
756;10133
756;10134
754;10135
754;10136
754;10137
754;10138
754;10139
754;10140
754;10141
753;10142
752;10143
750;10144
749;10145
747;10146
744;10147
744;10148
742;10149
742;10150
742;10151
741;10152
741;10153
741;10154
741;10155
741;10156
740;10157
740;10158
740;10159
741;10160
741;10161
742;10162
742;10163
743;10164
744;10165
747;10166
748;10167
748;10168
749;10169
749;10170
750;10171
752;10172
753;10173
755;10174
756;10175
758;10176
760;10177
758;10178
756;10179
753;10180
751;10181
748;10182
746;10183
744;10184
742;10185
742;10186
742;10187
742;10188
744;10189
745;10190
746;10191
747;10192
747;10193
747;10194
747;10195
747;10196
745;10197
744;10198
744;10199
744;10200
744;10201
745;10202
746;10203
747;10204
749;10205
750;10206
750;10207
749;10208
747;10209
745;10210
744;10211
743;10212
743;10213
743;10214
743;10215
742;10216
741;10217
741;10218
741;10219
742;10220
742;10221
745;10222
746;10223
747;10224
747;10225
747;10226
745;10227
742;10228
741;10229
740;10230
739;10231
738;10232
738;10233
738;10234
737;10235
737;10236
737;10237
737;10238
736;10239
732;10240
730;10241
729;10242
728;10243
728;10244
729;10245
729;10246
730;10247
731;10248
732;10249
734;10250
735;10251
738;10252
743;10253
746;10254
749;10255
751;10256
754;10257
756;10258
760;10259
761;10260
763;10261
763;10262
763;10263
763;10264
761;10265
760;10266
760;10267
759;10268
758;10269
757;10270
756;10271
754;10272
753;10273
752;10274
751;10275
750;10276
748;10277
746;10278
745;10279
745;10280
745;10281
744;10282
742;10283
738;10284
736;10285
735;10286
735;10287
735;10288
735;10289
736;10290
737;10291
739;10292
742;10293
744;10294
746;10295
750;10296
751;10297
752;10298
751;10299
748;10300
745;10301
739;10302
734;10303
730;10304
725;10305
722;10306
719;10307
717;10308
716;10309
716;10310
716;10311
717;10312
718;10313
720;10314
726;10315
729;10316
732;10317
736;10318
740;10319
744;10320
748;10321
748;10322
748;10323
747;10324
746;10325
746;10326
743;10327
742;10328
741;10329
741;10330
741;10331
741;10332
743;10333
744;10334
744;10335
745;10336
745;10337
745;10338
745;10339
743;10340
742;10341
741;10342
739;10343
738;10344
737;10345
735;10346
735;10347
735;10348
736;10349
737;10350
739;10351
743;10352
746;10353
748;10354
750;10355
752;10356
753;10357
754;10358
755;10359
755;10360
755;10361
756;10362
756;10363
756;10364
755;10365
754;10366
754;10367
753;10368
754;10369
754;10370
754;10371
754;10372
755;10373
755;10374
757;10375
758;10376
760;10377
761;10378
761;10379
761;10380
761;10381
760;10382
756;10383
753;10384
749;10385
744;10386
739;10387
735;10388
730;10389
728;10390
728;10391
728;10392
729;10393
731;10394
736;10395
739;10396
742;10397
745;10398
749;10399
752;10400
755;10401
758;10402
760;10403
760;10404
761;10405
762;10406
763;10407
762;10408
761;10409
758;10410
756;10411
753;10412
751;10413
747;10414
744;10415
741;10416
737;10417
734;10418
731;10419
727;10420
726;10421
726;10422
726;10423
727;10424
728;10425
729;10426
733;10427
735;10428
736;10429
739;10430
740;10431
743;10432
746;10433
748;10434
750;10435
751;10436
752;10437
752;10438
753;10439
753;10440
752;10441
750;10442
748;10443
745;10444
738;10445
735;10446
731;10447
728;10448
726;10449
724;10450
720;10451
720;10452
718;10453
716;10454
714;10455
709;10456
705;10457
698;10458
696;10459
695;10460
695;10461
696;10462
698;10463
702;10464
705;10465
709;10466
713;10467
717;10468
721;10469
731;10470
736;10471
740;10472
743;10473
746;10474
748;10475
750;10476
751;10477
752;10478
752;10479
752;10480
751;10481
750;10482
748;10483
746;10484
744;10485
743;10486
742;10487
741;10488
741;10489
741;10490
742;10491
742;10492
744;10493
746;10494
750;10495
752;10496
755;10497
757;10498
759;10499
760;10500
763;10501
764;10502
764;10503
765;10504
766;10505
767;10506
768;10507
768;10508
769;10509
769;10510
768;10511
766;10512
764;10513
758;10514
755;10515
752;10516
749;10517
747;10518
746;10519
743;10520
743;10521
743;10522
744;10523
745;10524
747;10525
751;10526
754;10527
756;10528
758;10529
760;10530
761;10531
762;10532
761;10533
761;10534
760;10535
759;10536
758;10537
757;10538
757;10539
757;10540
757;10541
758;10542
759;10543
760;10544
761;10545
762;10546
763;10547
764;10548
766;10549
768;10550
769;10551
770;10552
770;10553
769;10554
767;10555
763;10556
755;10557
751;10558
747;10559
744;10560
741;10561
738;10562
735;10563
733;10564
732;10565
732;10566
731;10567
732;10568
734;10569
735;10570
737;10571
738;10572
740;10573
742;10574
745;10575
744;10576
744;10577
744;10578
744;10579
744;10580
742;10581
742;10582
742;10583
741;10584
741;10585
740;10586
739;10587
734;10588
732;10589
730;10590
727;10591
725;10592
724;10593
723;10594
723;10595
723;10596
724;10597
726;10598
729;10599
734;10600
737;10601
740;10602
743;10603
746;10604
749;10605
755;10606
757;10607
759;10608
761;10609
762;10610
763;10611
763;10612
761;10613
759;10614
758;10615
755;10616
753;10617
751;10618
746;10619
741;10620
735;10621
729;10622
723;10623
718;10624
711;10625
709;10626
707;10627
706;10628
706;10629
707;10630
710;10631
712;10632
714;10633
717;10634
720;10635
724;10636
730;10637
733;10638
734;10639
736;10640
737;10641
739;10642
740;10643
743;10644
744;10645
745;10646
747;10647
748;10648
750;10649
752;10650
754;10651
755;10652
756;10653
758;10654
759;10655
759;10656
759;10657
758;10658
757;10659
756;10660
755;10661
751;10662
748;10663
743;10664
738;10665
733;10666
729;10667
719;10668
715;10669
711;10670
709;10671
707;10672
707;10673
707;10674
710;10675
712;10676
715;10677
719;10678
723;10679
727;10680
736;10681
740;10682
744;10683
747;10684
751;10685
754;10686
760;10687
762;10688
764;10689
764;10690
764;10691
764;10692
763;10693
762;10694
761;10695
761;10696
760;10697
759;10698
757;10699
756;10700
754;10701
752;10702
749;10703
745;10704
741;10705
732;10706
728;10707
724;10708
721;10709
719;10710
717;10711
716;10712
717;10713
719;10714
722;10715
724;10716
727;10717
732;10718
734;10719
736;10720
738;10721
741;10722
743;10723
747;10724
748;10725
749;10726
750;10727
750;10728
750;10729
749;10730
748;10731
746;10732
744;10733
742;10734
740;10735
739;10736
738;10737
738;10738
739;10739
739;10740
741;10741
742;10742
746;10743
748;10744
750;10745
751;10746
753;10747
755;10748
755;10749
756;10750
756;10751
757;10752
757;10753
757;10754
756;10755
749;10756
743;10757
738;10758
733;10759
728;10760
724;10761
718;10762
715;10763
714;10764
712;10765
712;10766
712;10767
713;10768
714;10769
716;10770
718;10771
720;10772
724;10773
730;10774
732;10775
734;10776
736;10777
738;10778
740;10779
745;10780
747;10781
748;10782
749;10783
749;10784
749;10785
750;10786
751;10787
752;10788
752;10789
753;10790
753;10791
752;10792
751;10793
750;10794
750;10795
750;10796
751;10797
751;10798
752;10799
752;10800
752;10801
752;10802
753;10803
753;10804
755;10805
756;10806
757;10807
758;10808
760;10809
762;10810
764;10811
764;10812
764;10813
764;10814
765;10815
765;10816
764;10817
759;10818
757;10819
755;10820
753;10821
751;10822
749;10823
746;10824
746;10825
745;10826
744;10827
743;10828
742;10829
742;10830
742;10831
742;10832
743;10833
743;10834
743;10835
742;10836
740;10837
736;10838
732;10839
728;10840
723;10841
718;10842
709;10843
705;10844
702;10845
700;10846
699;10847
699;10848
702;10849
704;10850
707;10851
711;10852
714;10853
718;10854
726;10855
730;10856
733;10857
737;10858
740;10859
742;10860
747;10861
750;10862
752;10863
754;10864
756;10865
758;10866
761;10867
762;10868
763;10869
764;10870
764;10871
764;10872
762;10873
761;10874
759;10875
759;10876
759;10877
757;10878
754;10879
753;10880
752;10881
751;10882
751;10883
749;10884
749;10885
749;10886
749;10887
749;10888
749;10889
749;10890
747;10891
742;10892
739;10893
736;10894
732;10895
730;10896
728;10897
726;10898
726;10899
727;10900
728;10901
729;10902
732;10903
738;10904
741;10905
745;10906
748;10907
750;10908
752;10909
752;10910
751;10911
751;10912
750;10913
749;10914
748;10915
747;10916
745;10917
742;10918
738;10919
735;10920
730;10921
725;10922
715;10923
711;10924
707;10925
704;10926
702;10927
701;10928
702;10929
704;10930
707;10931
710;10932
714;10933
719;10934
727;10935
732;10936
736;10937
740;10938
744;10939
747;10940
753;10941
755;10942
757;10943
759;10944
761;10945
762;10946
763;10947
765;10948
765;10949
765;10950
766;10951
766;10952
765;10953
765;10954
763;10955
761;10956
759;10957
756;10958
753;10959
747;10960
744;10961
741;10962
738;10963
736;10964
735;10965
731;10966
729;10967
728;10968
728;10969
728;10970
729;10971
732;10972
733;10973
735;10974
736;10975
737;10976
738;10977
738;10978
739;10979
741;10980
742;10981
744;10982
745;10983
746;10984
749;10985
751;10986
752;10987
754;10988
755;10989
756;10990
759;10991
760;10992
762;10993
763;10994
765;10995
766;10996
769;10997
770;10998
771;10999
772;11000
772;11001
772;11002
771;11003
769;11004
767;11005
765;11006
764;11007
762;11008
761;11009
759;11010
758;11011
758;11012
758;11013
758;11014
758;11015
758;11016
756;11017
754;11018
751;11019
749;11020
747;11021
745;11022
744;11023
745;11024
745;11025
745;11026
747;11027
749;11028
750;11029
751;11030
752;11031
754;11032
755;11033
756;11034
758;11035
758;11036
757;11037
756;11038
755;11039
752;11040
744;11041
739;11042
733;11043
728;11044
723;11045
719;11046
715;11047
714;11048
713;11049
714;11050
715;11051
717;11052
721;11053
723;11054
726;11055
729;11056
732;11057
736;11058
739;11059
745;11060
748;11061
749;11062
750;11063
750;11064
749;11065
745;11066
742;11067
739;11068
738;11069
736;11070
735;11071
734;11072
734;11073
735;11074
735;11075
737;11076
738;11077
743;11078
745;11079
747;11080
749;11081
747;11082
744;11083
738;11084
734;11085
731;11086
728;11087
725;11088
724;11089
723;11090
722;11091
723;11092
724;11093
725;11094
726;11095
728;11096
732;11097
734;11098
736;11099
738;11100
740;11101
742;11102
746;11103
748;11104
749;11105
750;11106
751;11107
751;11108
750;11109
743;11110
738;11111
734;11112
729;11113
725;11114
721;11115
714;11116
712;11117
710;11118
709;11119
709;11120
710;11121
713;11122
715;11123
717;11124
720;11125
723;11126
726;11127
732;11128
735;11129
738;11130
741;11131
742;11132
744;11133
747;11134
748;11135
749;11136
750;11137
751;11138
753;11139
754;11140
756;11141
757;11142
757;11143
756;11144
756;11145
755;11146
751;11147
748;11148
746;11149
744;11150
742;11151
741;11152
739;11153
739;11154
739;11155
739;11156
740;11157
741;11158
745;11159
746;11160
749;11161
751;11162
753;11163
756;11164
758;11165
762;11166
763;11167
765;11168
766;11169
767;11170
767;11171
769;11172
770;11173
770;11174
771;11175
771;11176
771;11177
771;11178
771;11179
771;11180
770;11181
770;11182
770;11183
769;11184
768;11185
767;11186
766;11187
764;11188
763;11189
762;11190
761;11191
760;11192
759;11193
757;11194
755;11195
750;11196
745;11197
741;11198
737;11199
733;11200
728;11201
716;11202
709;11203
704;11204
698;11205
694;11206
691;11207
689;11208
688;11209
688;11210
689;11211
691;11212
693;11213
697;11214
705;11215
709;11216
714;11217
720;11218
724;11219
729;11220
735;11221
738;11222
742;11223
744;11224
747;11225
748;11226
750;11227
749;11228
749;11229
748;11230
747;11231
746;11232
745;11233
744;11234
743;11235
741;11236
739;11237
738;11238
736;11239
733;11240
732;11241
732;11242
732;11243
732;11244
733;11245
734;11246
735;11247
736;11248
737;11249
737;11250
737;11251
737;11252
737;11253
737;11254
737;11255
737;11256
738;11257
742;11258
744;11259
746;11260
748;11261
749;11262
749;11263
748;11264
747;11265
746;11266
746;11267
746;11268
746;11269
746;11270
746;11271
747;11272
747;11273
747;11274
749;11275
750;11276
753;11277
754;11278
756;11279
757;11280
759;11281
760;11282
763;11283
764;11284
764;11285
764;11286
765;11287
766;11288
767;11289
768;11290
768;11291
767;11292
767;11293
767;11294
766;11295
765;11296
764;11297
763;11298
763;11299
763;11300
762;11301
762;11302
762;11303
761;11304
761;11305
760;11306
759;11307
757;11308
756;11309
755;11310
754;11311
753;11312
753;11313
751;11314
750;11315
749;11316
746;11317
744;11318
742;11319
739;11320
737;11321
736;11322
736;11323
736;11324
736;11325
736;11326
735;11327
734;11328
732;11329
730;11330
729;11331
727;11332
723;11333
722;11334
722;11335
722;11336
722;11337
723;11338
724;11339
725;11340
726;11341
727;11342
728;11343
729;11344
731;11345
729;11346
727;11347
725;11348
720;11349
715;11350
705;11351
700;11352
697;11353
695;11354
693;11355
693;11356
694;11357
697;11358
700;11359
703;11360
706;11361
710;11362
713;11363
720;11364
723;11365
725;11366
728;11367
730;11368
732;11369
736;11370
739;11371
740;11372
742;11373
743;11374
744;11375
745;11376
745;11377
745;11378
745;11379
744;11380
744;11381
743;11382
743;11383
743;11384
744;11385
744;11386
746;11387
747;11388
750;11389
752;11390
754;11391
756;11392
757;11393
759;11394
762;11395
763;11396
764;11397
766;11398
767;11399
767;11400
767;11401
767;11402
767;11403
765;11404
765;11405
763;11406
761;11407
760;11408
758;11409
756;11410
753;11411
750;11412
745;11413
742;11414
739;11415
737;11416
736;11417
735;11418
735;11419
735;11420
736;11421
737;11422
738;11423
740;11424
742;11425
745;11426
746;11427
747;11428
748;11429
749;11430
748;11431
744;11432
741;11433
738;11434
734;11435
731;11436
729;11437
725;11438
725;11439
725;11440
725;11441
724;11442
724;11443
723;11444
723;11445
723;11446
724;11447
724;11448
724;11449
726;11450
727;11451
728;11452
730;11453
731;11454
733;11455
736;11456
742;11457
746;11458
749;11459
751;11460
754;11461
757;11462
761;11463
762;11464
763;11465
764;11466
765;11467
766;11468
765;11469
763;11470
761;11471
760;11472
758;11473
757;11474
756;11475
753;11476
752;11477
750;11478
748;11479
747;11480
745;11481
742;11482
740;11483
738;11484
737;11485
736;11486
736;11487
737;11488
737;11489
738;11490
738;11491
738;11492
739;11493
739;11494
739;11495
738;11496
737;11497
737;11498
736;11499
735;11500
734;11501
733;11502
732;11503
730;11504
728;11505
726;11506
724;11507
724;11508
725;11509
727;11510
729;11511
731;11512
735;11513
737;11514
738;11515
740;11516
741;11517
741;11518
741;11519
740;11520
739;11521
738;11522
737;11523
737;11524
736;11525
734;11526
733;11527
732;11528
731;11529
730;11530
729;11531
729;11532
730;11533
730;11534
731;11535
733;11536
735;11537
740;11538
742;11539
745;11540
747;11541
750;11542
753;11543
758;11544
760;11545
762;11546
764;11547
765;11548
766;11549
768;11550
769;11551
771;11552
772;11553
772;11554
771;11555
763;11556
759;11557
756;11558
751;11559
747;11560
743;11561
737;11562
734;11563
732;11564
730;11565
729;11566
728;11567
727;11568
726;11569
725;11570
725;11571
725;11572
726;11573
727;11574
729;11575
730;11576
732;11577
733;11578
735;11579
737;11580
742;11581
744;11582
745;11583
748;11584
750;11585
752;11586
757;11587
759;11588
760;11589
762;11590
763;11591
764;11592
765;11593
767;11594
768;11595
769;11596
770;11597
771;11598
772;11599
774;11600
775;11601
776;11602
777;11603
778;11604
778;11605
774;11606
772;11607
769;11608
766;11609
763;11610
761;11611
756;11612
753;11613
752;11614
751;11615
750;11616
750;11617
750;11618
751;11619
752;11620
753;11621
754;11622
755;11623
757;11624
758;11625
759;11626
759;11627
759;11628
759;11629
758;11630
751;11631
747;11632
742;11633
738;11634
734;11635
730;11636
724;11637
723;11638
722;11639
721;11640
721;11641
723;11642
726;11643
728;11644
730;11645
732;11646
734;11647
736;11648
740;11649
741;11650
742;11651
742;11652
741;11653
740;11654
739;11655
738;11656
739;11657
738;11658
738;11659
737;11660
736;11661
736;11662
736;11663
737;11664
738;11665
739;11666
740;11667
743;11668
744;11669
745;11670
746;11671
746;11672
746;11673
745;11674
744;11675
745;11676
745;11677
747;11678
748;11679
749;11680
752;11681
754;11682
755;11683
756;11684
758;11685
759;11686
762;11687
763;11688
765;11689
766;11690
766;11691
767;11692
768;11693
768;11694
768;11695
768;11696
768;11697
768;11698
768;11699
767;11700
766;11701
764;11702
762;11703
759;11704
752;11705
748;11706
743;11707
739;11708
735;11709
732;11710
728;11711
727;11712
728;11713
729;11714
730;11715
732;11716
735;11717
741;11718
744;11719
748;11720
751;11721
754;11722
757;11723
762;11724
764;11725
766;11726
767;11727
768;11728
768;11729
769;11730
770;11731
770;11732
770;11733
770;11734
771;11735
771;11736
770;11737
769;11738
768;11739
766;11740
765;11741
763;11742
757;11743
752;11744
748;11745
742;11746
737;11747
732;11748
721;11749
718;11750
714;11751
712;11752
711;11753
711;11754
713;11755
715;11756
717;11757
720;11758
724;11759
727;11760
735;11761
739;11762
742;11763
745;11764
748;11765
750;11766
755;11767
757;11768
760;11769
762;11770
764;11771
765;11772
766;11773
766;11774
766;11775
767;11776
767;11777
766;11778
766;11779
764;11780
761;11781
759;11782
757;11783
754;11784
751;11785
744;11786
740;11787
736;11788
732;11789
729;11790
727;11791
725;11792
723;11793
723;11794
723;11795
723;11796
724;11797
725;11798
725;11799
726;11800
727;11801
729;11802
731;11803
735;11804
737;11805
740;11806
742;11807
744;11808
745;11809
747;11810
751;11811
753;11812
755;11813
757;11814
758;11815
759;11816
763;11817
763;11818
765;11819
766;11820
767;11821
767;11822
769;11823
770;11824
770;11825
771;11826
771;11827
771;11828
770;11829
768;11830
765;11831
763;11832
760;11833
755;11834
751;11835
742;11836
737;11837
732;11838
729;11839
726;11840
723;11841
721;11842
720;11843
720;11844
720;11845
720;11846
719;11847
719;11848
720;11849
721;11850
723;11851
725;11852
727;11853
732;11854
735;11855
739;11856
743;11857
746;11858
750;11859
756;11860
758;11861
760;11862
761;11863
761;11864
761;11865
760;11866
758;11867
757;11868
756;11869
754;11870
753;11871
752;11872
751;11873
750;11874
750;11875
750;11876
749;11877
749;11878
749;11879
749;11880
751;11881
752;11882
753;11883
755;11884
758;11885
759;11886
759;11887
759;11888
757;11889
753;11890
744;11891
739;11892
735;11893
730;11894
726;11895
724;11896
721;11897
719;11898
719;11899
719;11900
721;11901
722;11902
724;11903
730;11904
733;11905
735;11906
736;11907
736;11908
736;11909
736;11910
736;11911
736;11912
736;11913
736;11914
737;11915
737;11916
736;11917
736;11918
735;11919
735;11920
735;11921
734;11922
734;11923
734;11924
735;11925
735;11926
737;11927
738;11928
738;11929
737;11930
735;11931
734;11932
733;11933
732;11934
731;11935
731;11936
731;11937
732;11938
733;11939
734;11940
738;11941
740;11942
743;11943
745;11944
748;11945
751;11946
754;11947
756;11948
758;11949
759;11950
760;11951
760;11952
760;11953
759;11954
759;11955
759;11956
759;11957
760;11958
762;11959
762;11960
763;11961
764;11962
764;11963
765;11964
767;11965
768;11966
769;11967
770;11968
771;11969
771;11970
772;11971
773;11972
773;11973
773;11974
774;11975
775;11976
775;11977
776;11978
777;11979
777;11980
778;11981
778;11982
779;11983
780;11984
779;11985
779;11986
779;11987
779;11988
779;11989
778;11990
778;11991
777;11992
777;11993
777;11994
776;11995
774;11996
773;11997
771;11998
769;11999
765;12000
763;12001
759;12002
750;12003
745;12004
740;12005
736;12006
732;12007
729;12008
724;12009
722;12010
721;12011
720;12012
720;12013
720;12014
718;12015
718;12016
718;12017
719;12018
718;12019
716;12020
710;12021
706;12022
702;12023
697;12024
692;12025
688;12026
683;12027
681;12028
681;12029
682;12030
684;12031
686;12032
689;12033
698;12034
703;12035
707;12036
712;12037
717;12038
721;12039
731;12040
735;12041
739;12042
742;12043
744;12044
747;12045
751;12046
752;12047
753;12048
754;12049
756;12050
758;12051
761;12052
762;12053
763;12054
764;12055
766;12056
767;12057
770;12058
771;12059
772;12060
774;12061
774;12062
775;12063
775;12064
772;12065
771;12066
769;12067
767;12068
763;12069
760;12070
754;12071
752;12072
751;12073
750;12074
750;12075
750;12076
750;12077
751;12078
752;12079
753;12080
754;12081
756;12082
758;12083
759;12084
760;12085
761;12086
761;12087
761;12088
761;12089
760;12090
760;12091
759;12092
759;12093
759;12094
759;12095
759;12096
758;12097
757;12098
756;12099
755;12100
754;12101
754;12102
755;12103
755;12104
757;12105
758;12106
758;12107
762;12108
763;12109
765;12110
767;12111
769;12112
770;12113
773;12114
774;12115
775;12116
775;12117
773;12118
771;12119
764;12120
761;12121
757;12122
753;12123
749;12124
746;12125
742;12126
741;12127
740;12128
739;12129
739;12130
740;12131
742;12132
744;12133
744;12134
744;12135
744;12136
743;12137
743;12138
743;12139
743;12140
742;12141
741;12142
741;12143
740;12144
739;12145
739;12146
740;12147
740;12148
741;12149
742;12150
744;12151
744;12152
744;12153
743;12154
741;12155
739;12156
737;12157
736;12158
735;12159
735;12160
736;12161
736;12162
737;12163
738;12164
739;12165
740;12166
743;12167
745;12168
746;12169
749;12170
751;12171
752;12172
753;12173
755;12174
756;12175
756;12176
755;12177
751;12178
747;12179
742;12180
737;12181
724;12182
720;12183
715;12184
712;12185
710;12186
710;12187
710;12188
712;12189
714;12190
717;12191
721;12192
725;12193
734;12194
738;12195
742;12196
745;12197
748;12198
751;12199
754;12200
758;12201
759;12202
760;12203
761;12204
761;12205
761;12206
760;12207
759;12208
756;12209
753;12210
749;12211
746;12212
739;12213
737;12214
735;12215
733;12216
732;12217
731;12218
731;12219
732;12220
734;12221
736;12222
738;12223
740;12224
745;12225
747;12226
749;12227
752;12228
755;12229
757;12230
760;12231
763;12232
764;12233
763;12234
763;12235
762;12236
762;12237
761;12238
761;12239
761;12240
761;12241
760;12242
761;12243
761;12244
762;12245
763;12246
763;12247
764;12248
764;12249
764;12250
763;12251
762;12252
761;12253
759;12254
757;12255
755;12256
749;12257
747;12258
743;12259
740;12260
736;12261
733;12262
729;12263
727;12264
726;12265
725;12266
724;12267
724;12268
722;12269
721;12270
721;12271
722;12272
723;12273
724;12274
729;12275
731;12276
733;12277
735;12278
738;12279
742;12280
745;12281
750;12282
752;12283
755;12284
756;12285
757;12286
758;12287
760;12288
761;12289
761;12290
762;12291
763;12292
764;12293
766;12294
767;12295
767;12296
767;12297
767;12298
766;12299
765;12300
765;12301
765;12302
765;12303
765;12304
765;12305
765;12306
765;12307
763;12308
763;12309
761;12310
760;12311
758;12312
752;12313
748;12314
745;12315
741;12316
737;12317
734;12318
727;12319
723;12320
721;12321
719;12322
719;12323
719;12324
720;12325
723;12326
725;12327
728;12328
732;12329
735;12330
742;12331
745;12332
748;12333
750;12334
752;12335
754;12336
755;12337
758;12338
759;12339
760;12340
761;12341
762;12342
763;12343
764;12344
765;12345
766;12346
767;12347
767;12348
768;12349
768;12350
768;12351
768;12352
768;12353
768;12354
768;12355
769;12356
769;12357
769;12358
768;12359
766;12360
763;12361
753;12362
747;12363
741;12364
736;12365
730;12366
726;12367
721;12368
715;12369
713;12370
713;12371
713;12372
714;12373
715;12374
720;12375
723;12376
726;12377
729;12378
731;12379
734;12380
740;12381
741;12382
742;12383
743;12384
743;12385
743;12386
744;12387
744;12388
744;12389
743;12390
741;12391
738;12392
732;12393
730;12394
727;12395
725;12396
723;12397
722;12398
720;12399
719;12400
720;12401
721;12402
722;12403
724;12404
726;12405
731;12406
733;12407
735;12408
738;12409
740;12410
743;12411
748;12412
751;12413
753;12414
756;12415
758;12416
760;12417
764;12418
765;12419
766;12420
767;12421
768;12422
768;12423
770;12424
770;12425
771;12426
771;12427
770;12428
770;12429
770;12430
770;12431
769;12432
768;12433
767;12434
764;12435
761;12436
752;12437
748;12438
743;12439
740;12440
737;12441
735;12442
733;12443
734;12444
734;12445
736;12446
738;12447
740;12448
745;12449
747;12450
749;12451
749;12452
750;12453
750;12454
751;12455
751;12456
752;12457
752;12458
752;12459
753;12460
753;12461
753;12462
754;12463
755;12464
755;12465
755;12466
755;12467
755;12468
756;12469
756;12470
756;12471
755;12472
754;12473
751;12474
750;12475
747;12476
745;12477
742;12478
740;12479
736;12480
732;12481
729;12482
726;12483
723;12484
722;12485
721;12486
720;12487
721;12488
722;12489
723;12490
725;12491
727;12492
732;12493
735;12494
737;12495
740;12496
743;12497
745;12498
745;12499
744;12500
743;12501
743;12502
742;12503
741;12504
741;12505
741;12506
741;12507
741;12508
741;12509
741;12510
741;12511
741;12512
741;12513
741;12514
740;12515
740;12516
741;12517
741;12518
742;12519
741;12520
741;12521
741;12522
741;12523
742;12524
743;12525
744;12526
745;12527
746;12528
748;12529
750;12530
751;12531
751;12532
751;12533
750;12534
749;12535
745;12536
744;12537
743;12538
742;12539
741;12540
741;12541
740;12542
739;12543
739;12544
739;12545
739;12546
741;12547
741;12548
743;12549
744;12550
745;12551
746;12552
747;12553
748;12554
747;12555
747;12556
747;12557
747;12558
747;12559
747;12560
748;12561
749;12562
750;12563
751;12564
752;12565
753;12566
755;12567
755;12568
756;12569
756;12570
755;12571
754;12572
752;12573
750;12574
749;12575
749;12576
748;12577
749;12578
749;12579
749;12580
749;12581
749;12582
749;12583
749;12584
748;12585
743;12586
739;12587
735;12588
731;12589
728;12590
724;12591
719;12592
718;12593
717;12594
717;12595
718;12596
719;12597
721;12598
722;12599
723;12600
724;12601
725;12602
727;12603
728;12604
732;12605
733;12606
735;12607
735;12608
736;12609
737;12610
738;12611
739;12612
738;12613
737;12614
736;12615
734;12616
732;12617
730;12618
729;12619
729;12620
728;12621
729;12622
729;12623
730;12624
731;12625
732;12626
734;12627
736;12628
738;12629
743;12630
746;12631
748;12632
751;12633
753;12634
756;12635
760;12636
761;12637
762;12638
763;12639
764;12640
764;12641
765;12642
765;12643
764;12644
764;12645
763;12646
763;12647
761;12648
761;12649
761;12650
761;12651
761;12652
761;12653
762;12654
763;12655
764;12656
764;12657
765;12658
766;12659
767;12660
769;12661
770;12662
771;12663
772;12664
772;12665
773;12666
774;12667
774;12668
775;12669
774;12670
774;12671
774;12672
774;12673
774;12674
774;12675
774;12676
773;12677
772;12678
770;12679
768;12680
766;12681
764;12682
761;12683
757;12684
749;12685
745;12686
740;12687
735;12688
729;12689
722;12690
716;12691
706;12692
702;12693
699;12694
697;12695
696;12696
696;12697
698;12698
700;12699
702;12700
705;12701
707;12702
710;12703
716;12704
718;12705
720;12706
722;12707
722;12708
719;12709
707;12710
701;12711
696;12712
693;12713
691;12714
690;12715
690;12716
688;12717
689;12718
690;12719
692;12720
695;12721
697;12722
705;12723
708;12724
713;12725
717;12726
721;12727
723;12728
729;12729
731;12730
734;12731
736;12732
739;12733
741;12734
745;12735
747;12736
748;12737
749;12738
751;12739
751;12740
753;12741
756;12742
758;12743
758;12744
759;12745
759;12746
759;12747
761;12748
761;12749
761;12750
760;12751
760;12752
759;12753
758;12754
758;12755
757;12756
756;12757
756;12758
755;12759
753;12760
752;12761
752;12762
751;12763
751;12764
750;12765
750;12766
750;12767
751;12768
752;12769
752;12770
754;12771
756;12772
756;12773
757;12774
757;12775
757;12776
758;12777
758;12778
758;12779
758;12780
758;12781
757;12782
757;12783
756;12784
756;12785
755;12786
755;12787
753;12788
752;12789
751;12790
747;12791
743;12792
740;12793
736;12794
732;12795
729;12796
724;12797
723;12798
722;12799
720;12800
720;12801
719;12802
720;12803
722;12804
724;12805
725;12806
728;12807
730;12808
733;12809
738;12810
741;12811
743;12812
745;12813
747;12814
748;12815
750;12816
751;12817
752;12818
753;12819
754;12820
754;12821
756;12822
757;12823
758;12824
758;12825
759;12826
759;12827
760;12828
760;12829
759;12830
757;12831
753;12832
750;12833
743;12834
739;12835
736;12836
732;12837
729;12838
727;12839
726;12840
724;12841
724;12842
725;12843
726;12844
728;12845
730;12846
734;12847
736;12848
737;12849
739;12850
740;12851
741;12852
743;12853
744;12854
745;12855
745;12856
746;12857
747;12858
749;12859
749;12860
750;12861
751;12862
752;12863
753;12864
755;12865
757;12866
758;12867
759;12868
760;12869
761;12870
761;12871
761;12872
761;12873
761;12874
760;12875
760;12876
760;12877
758;12878
756;12879
754;12880
751;12881
747;12882
744;12883
740;12884
739;12885
738;12886
737;12887
736;12888
736;12889
737;12890
738;12891
739;12892
741;12893
743;12894
746;12895
750;12896
751;12897
751;12898
751;12899
750;12900
749;12901
748;12902
747;12903
746;12904
745;12905
744;12906
744;12907
744;12908
744;12909
744;12910
745;12911
744;12912
745;12913
744;12914
743;12915
742;12916
741;12917
739;12918
736;12919
732;12920
723;12921
718;12922
714;12923
712;12924
710;12925
708;12926
708;12927
709;12928
710;12929
712;12930
714;12931
717;12932
723;12933
726;12934
729;12935
732;12936
734;12937
735;12938
737;12939
741;12940
742;12941
743;12942
744;12943
745;12944
745;12945
747;12946
747;12947
747;12948
747;12949
745;12950
743;12951
735;12952
729;12953
723;12954
718;12955
712;12956
708;12957
702;12958
701;12959
700;12960
700;12961
702;12962
703;12963
709;12964
712;12965
716;12966
720;12967
724;12968
728;12969
732;12970
737;12971
739;12972
742;12973
744;12974
746;12975
748;12976
750;12977
751;12978
752;12979
752;12980
753;12981
754;12982
756;12983
757;12984
758;12985
758;12986
759;12987
760;12988
761;12989
760;12990
760;12991
758;12992
757;12993
756;12994
754;12995
753;12996
752;12997
752;12998
751;12999
751;13000
750;13001
750;13002
750;13003
749;13004
750;13005
750;13006
750;13007
749;13008
747;13009
747;13010
745;13011
745;13012
744;13013
743;13014
742;13015
740;13016
737;13017
735;13018
732;13019
726;13020
723;13021
721;13022
719;13023
718;13024
716;13025
716;13026
717;13027
719;13028
721;13029
722;13030
723;13031
727;13032
729;13033
732;13034
735;13035
737;13036
740;13037
743;13038
749;13039
750;13040
752;13041
752;13042
751;13043
749;13044
741;13045
736;13046
731;13047
727;13048
723;13049
719;13050
712;13051
710;13052
708;13053
707;13054
707;13055
707;13056
711;13057
713;13058
717;13059
720;13060
724;13061
728;13062
731;13063
738;13064
741;13065
744;13066
747;13067
749;13068
752;13069
755;13070
756;13071
758;13072
759;13073
760;13074
761;13075
763;13076
763;13077
764;13078
764;13079
762;13080
759;13081
752;13082
749;13083
745;13084
742;13085
739;13086
736;13087
732;13088
731;13089
730;13090
730;13091
729;13092
730;13093
733;13094
735;13095
737;13096
738;13097
740;13098
741;13099
743;13100
743;13101
743;13102
742;13103
741;13104
741;13105
740;13106
739;13107
740;13108
740;13109
