emg;t
746;0
746;1
746;2
746;3
746;4
746;5
746;6
746;7
746;8
746;9
746;10
746;11
746;12
746;13
746;14
746;15
746;16
746;17
746;18
746;19
746;20
746;21
746;22
746;23
746;24
746;25
746;26
746;27
746;28
746;29
746;30
746;31
746;32
746;33
746;34
746;35
746;36
746;37
746;38
746;39
746;40
746;41
746;42
746;43
746;44
746;45
746;46
746;47
746;48
746;49
746;50
746;51
746;52
746;53
746;54
746;55
746;56
746;57
746;58
746;59
746;60
746;61
746;62
746;63
746;64
746;65
746;66
746;67
746;68
746;69
746;70
746;71
746;72
746;73
746;74
746;75
746;76
746;77
746;78
746;79
746;80
746;81
746;82
746;83
746;84
746;85
746;86
746;87
746;88
746;89
746;90
746;91
746;92
746;93
746;94
746;95
746;96
746;97
746;98
746;99
746;100
746;101
746;102
746;103
746;104
746;105
746;106
746;107
746;108
746;109
746;110
746;111
746;112
746;113
746;114
746;115
746;116
746;117
746;118
746;119
746;120
746;121
746;122
746;123
746;124
746;125
746;126
746;127
746;128
746;129
746;130
747;131
746;132
747;133
746;134
746;135
746;136
746;137
746;138
746;139
746;140
746;141
746;142
746;143
746;144
746;145
746;146
746;147
746;148
746;149
746;150
746;151
746;152
746;153
746;154
746;155
746;156
746;157
746;158
746;159
746;160
746;161
746;162
746;163
746;164
746;165
746;166
746;167
746;168
746;169
746;170
746;171
746;172
746;173
746;174
746;175
746;176
746;177
746;178
746;179
746;180
746;181
746;182
746;183
746;184
746;185
746;186
746;187
746;188
746;189
746;190
746;191
746;192
746;193
746;194
746;195
746;196
746;197
746;198
746;199
746;200
746;201
746;202
746;203
746;204
746;205
746;206
746;207
746;208
746;209
746;210
746;211
746;212
746;213
746;214
746;215
746;216
746;217
746;218
746;219
746;220
746;221
745;222
746;223
746;224
746;225
746;226
746;227
746;228
746;229
746;230
746;231
746;232
746;233
746;234
746;235
746;236
746;237
746;238
746;239
746;240
746;241
746;242
746;243
746;244
746;245
746;246
746;247
746;248
746;249
746;250
746;251
746;252
746;253
746;254
746;255
746;256
746;257
746;258
746;259
746;260
746;261
746;262
746;263
746;264
746;265
746;266
746;267
746;268
746;269
746;270
745;271
745;272
746;273
745;274
746;275
746;276
745;277
745;278
746;279
745;280
745;281
745;282
746;283
745;284
746;285
745;286
745;287
745;288
745;289
746;290
745;291
746;292
745;293
746;294
746;295
745;296
746;297
746;298
746;299
745;300
746;301
745;302
745;303
745;304
745;305
746;306
745;307
745;308
745;309
746;310
746;311
745;312
745;313
745;314
745;315
745;316
745;317
746;318
745;319
745;320
745;321
745;322
745;323
745;324
745;325
745;326
745;327
746;328
745;329
745;330
745;331
745;332
745;333
745;334
745;335
745;336
745;337
745;338
745;339
745;340
745;341
746;342
746;343
746;344
745;345
746;346
746;347
746;348
746;349
745;350
745;351
746;352
746;353
746;354
746;355
746;356
746;357
746;358
745;359
746;360
746;361
745;362
746;363
746;364
746;365
746;366
745;367
746;368
746;369
746;370
746;371
746;372
745;373
746;374
746;375
745;376
746;377
745;378
745;379
745;380
745;381
746;382
746;383
745;384
745;385
746;386
746;387
745;388
745;389
746;390
745;391
746;392
745;393
746;394
745;395
746;396
746;397
745;398
746;399
746;400
745;401
746;402
746;403
746;404
746;405
746;406
746;407
746;408
746;409
746;410
746;411
746;412
746;413
746;414
746;415
746;416
746;417
746;418
746;419
746;420
746;421
746;422
746;423
746;424
746;425
746;426
746;427
746;428
745;429
745;430
746;431
745;432
745;433
746;434
745;435
745;436
745;437
745;438
745;439
745;440
745;441
746;442
745;443
745;444
746;445
745;446
745;447
745;448
745;449
745;450
745;451
746;452
746;453
745;454
745;455
745;456
745;457
745;458
745;459
745;460
745;461
745;462
745;463
745;464
745;465
745;466
746;467
745;468
745;469
745;470
745;471
746;472
745;473
745;474
745;475
745;476
745;477
745;478
745;479
745;480
745;481
745;482
745;483
745;484
745;485
745;486
745;487
745;488
745;489
745;490
745;491
745;492
745;493
745;494
745;495
745;496
745;497
745;498
745;499
745;500
745;501
745;502
745;503
745;504
745;505
745;506
745;507
745;508
745;509
745;510
745;511
745;512
745;513
745;514
745;515
745;516
745;517
745;518
745;519
745;520
745;521
745;522
745;523
745;524
745;525
745;526
745;527
745;528
745;529
745;530
745;531
745;532
745;533
745;534
745;535
744;536
745;537
745;538
745;539
745;540
745;541
745;542
744;543
744;544
744;545
744;546
744;547
744;548
744;549
744;550
744;551
744;552
744;553
744;554
744;555
744;556
744;557
744;558
744;559
744;560
744;561
744;562
744;563
744;564
744;565
744;566
744;567
744;568
744;569
744;570
744;571
744;572
744;573
744;574
744;575
744;576
744;577
744;578
744;579
744;580
744;581
744;582
744;583
744;584
744;585
744;586
744;587
744;588
744;589
744;590
744;591
744;592
744;593
744;594
744;595
744;596
744;597
744;598
744;599
744;600
744;601
744;602
744;603
744;604
744;605
744;606
744;607
744;608
744;609
744;610
744;611
744;612
744;613
743;614
744;615
744;616
744;617
744;618
744;619
744;620
744;621
744;622
744;623
744;624
744;625
744;626
744;627
744;628
744;629
744;630
744;631
744;632
744;633
744;634
744;635
744;636
744;637
744;638
744;639
744;640
744;641
744;642
744;643
744;644
744;645
744;646
744;647
744;648
744;649
744;650
744;651
744;652
744;653
744;654
744;655
744;656
744;657
744;658
744;659
744;660
744;661
744;662
744;663
744;664
744;665
744;666
744;667
744;668
744;669
744;670
744;671
744;672
744;673
744;674
744;675
744;676
744;677
744;678
744;679
744;680
744;681
744;682
745;683
745;684
744;685
745;686
745;687
745;688
744;689
745;690
745;691
745;692
745;693
745;694
745;695
745;696
745;697
745;698
745;699
745;700
745;701
745;702
745;703
745;704
745;705
745;706
745;707
745;708
745;709
745;710
745;711
745;712
745;713
745;714
745;715
745;716
745;717
745;718
745;719
745;720
745;721
745;722
745;723
745;724
745;725
745;726
745;727
745;728
745;729
745;730
745;731
744;732
745;733
745;734
745;735
745;736
745;737
745;738
745;739
745;740
745;741
745;742
745;743
745;744
745;745
745;746
745;747
745;748
745;749
745;750
745;751
745;752
745;753
745;754
745;755
745;756
745;757
745;758
745;759
745;760
745;761
745;762
745;763
745;764
745;765
745;766
745;767
745;768
745;769
745;770
745;771
745;772
745;773
745;774
745;775
745;776
745;777
745;778
745;779
745;780
745;781
745;782
745;783
745;784
745;785
745;786
745;787
745;788
745;789
745;790
745;791
745;792
745;793
745;794
745;795
746;796
745;797
745;798
745;799
745;800
745;801
745;802
746;803
746;804
746;805
745;806
746;807
745;808
745;809
746;810
746;811
746;812
745;813
745;814
746;815
745;816
745;817
745;818
745;819
746;820
745;821
745;822
746;823
746;824
745;825
745;826
745;827
745;828
745;829
745;830
746;831
746;832
745;833
745;834
746;835
745;836
745;837
745;838
745;839
746;840
745;841
745;842
745;843
745;844
745;845
745;846
745;847
746;848
746;849
746;850
746;851
746;852
746;853
746;854
746;855
746;856
746;857
746;858
746;859
746;860
746;861
746;862
746;863
746;864
746;865
746;866
746;867
746;868
746;869
746;870
746;871
746;872
746;873
746;874
746;875
746;876
746;877
746;878
746;879
746;880
746;881
746;882
746;883
746;884
746;885
746;886
746;887
746;888
746;889
746;890
746;891
746;892
746;893
746;894
746;895
746;896
746;897
746;898
746;899
746;900
746;901
746;902
746;903
746;904
746;905
746;906
746;907
746;908
746;909
746;910
746;911
746;912
746;913
746;914
746;915
746;916
746;917
746;918
746;919
746;920
746;921
746;922
746;923
746;924
746;925
747;926
746;927
746;928
746;929
746;930
746;931
746;932
746;933
746;934
746;935
746;936
746;937
746;938
746;939
746;940
746;941
746;942
746;943
746;944
746;945
746;946
746;947
746;948
746;949
746;950
746;951
746;952
746;953
746;954
746;955
746;956
746;957
746;958
746;959
746;960
746;961
746;962
746;963
746;964
746;965
746;966
746;967
746;968
746;969
746;970
746;971
746;972
746;973
746;974
746;975
747;976
747;977
747;978
746;979
746;980
746;981
746;982
747;983
746;984
747;985
747;986
746;987
746;988
746;989
747;990
747;991
747;992
747;993
746;994
746;995
746;996
747;997
746;998
746;999
746;1000
746;1001
746;1002
746;1003
747;1004
746;1005
746;1006
746;1007
746;1008
746;1009
746;1010
746;1011
746;1012
747;1013
746;1014
746;1015
746;1016
746;1017
746;1018
747;1019
746;1020
747;1021
746;1022
746;1023
747;1024
747;1025
747;1026
747;1027
747;1028
747;1029
747;1030
747;1031
747;1032
746;1033
747;1034
747;1035
747;1036
747;1037
746;1038
746;1039
747;1040
746;1041
747;1042
747;1043
746;1044
747;1045
747;1046
746;1047
746;1048
746;1049
746;1050
746;1051
746;1052
746;1053
746;1054
746;1055
746;1056
746;1057
746;1058
746;1059
746;1060
746;1061
746;1062
746;1063
746;1064
746;1065
746;1066
746;1067
746;1068
746;1069
746;1070
746;1071
746;1072
746;1073
746;1074
746;1075
746;1076
746;1077
746;1078
746;1079
746;1080
746;1081
746;1082
747;1083
747;1084
746;1085
746;1086
747;1087
746;1088
746;1089
747;1090
746;1091
747;1092
747;1093
747;1094
747;1095
746;1096
746;1097
746;1098
746;1099
746;1100
746;1101
746;1102
747;1103
747;1104
746;1105
746;1106
746;1107
746;1108
746;1109
746;1110
746;1111
746;1112
746;1113
746;1114
746;1115
746;1116
746;1117
746;1118
746;1119
746;1120
746;1121
746;1122
746;1123
746;1124
746;1125
746;1126
746;1127
746;1128
746;1129
746;1130
746;1131
746;1132
746;1133
746;1134
746;1135
746;1136
747;1137
746;1138
746;1139
747;1140
747;1141
747;1142
747;1143
747;1144
747;1145
746;1146
746;1147
747;1148
747;1149
747;1150
747;1151
747;1152
747;1153
747;1154
747;1155
747;1156
747;1157
747;1158
747;1159
747;1160
747;1161
746;1162
747;1163
747;1164
747;1165
746;1166
747;1167
746;1168
747;1169
747;1170
747;1171
747;1172
747;1173
746;1174
746;1175
746;1176
747;1177
747;1178
747;1179
747;1180
746;1181
747;1182
747;1183
747;1184
747;1185
747;1186
747;1187
747;1188
747;1189
747;1190
747;1191
747;1192
747;1193
747;1194
747;1195
747;1196
747;1197
747;1198
747;1199
747;1200
747;1201
747;1202
747;1203
747;1204
747;1205
747;1206
747;1207
747;1208
747;1209
747;1210
747;1211
747;1212
747;1213
747;1214
747;1215
747;1216
747;1217
747;1218
747;1219
747;1220
747;1221
747;1222
747;1223
747;1224
747;1225
747;1226
747;1227
747;1228
747;1229
747;1230
747;1231
747;1232
747;1233
747;1234
747;1235
747;1236
747;1237
747;1238
747;1239
747;1240
747;1241
746;1242
747;1243
747;1244
747;1245
747;1246
747;1247
747;1248
747;1249
747;1250
747;1251
747;1252
747;1253
747;1254
747;1255
747;1256
747;1257
747;1258
747;1259
747;1260
747;1261
747;1262
747;1263
747;1264
747;1265
747;1266
747;1267
747;1268
747;1269
747;1270
747;1271
747;1272
747;1273
747;1274
747;1275
747;1276
747;1277
746;1278
747;1279
747;1280
747;1281
746;1282
746;1283
746;1284
747;1285
747;1286
747;1287
746;1288
746;1289
746;1290
746;1291
746;1292
747;1293
746;1294
747;1295
746;1296
747;1297
746;1298
746;1299
746;1300
746;1301
746;1302
746;1303
746;1304
746;1305
746;1306
746;1307
746;1308
746;1309
746;1310
747;1311
746;1312
747;1313
747;1314
746;1315
747;1316
746;1317
746;1318
747;1319
746;1320
747;1321
747;1322
746;1323
747;1324
747;1325
746;1326
746;1327
746;1328
746;1329
746;1330
746;1331
746;1332
746;1333
746;1334
746;1335
746;1336
746;1337
746;1338
746;1339
746;1340
746;1341
746;1342
746;1343
746;1344
746;1345
746;1346
746;1347
746;1348
746;1349
746;1350
746;1351
746;1352
747;1353
746;1354
746;1355
746;1356
746;1357
746;1358
746;1359
746;1360
746;1361
746;1362
747;1363
746;1364
747;1365
747;1366
747;1367
746;1368
746;1369
747;1370
747;1371
747;1372
747;1373
747;1374
747;1375
747;1376
747;1377
747;1378
747;1379
747;1380
747;1381
747;1382
747;1383
747;1384
747;1385
747;1386
747;1387
747;1388
746;1389
747;1390
747;1391
747;1392
747;1393
747;1394
747;1395
747;1396
747;1397
747;1398
747;1399
747;1400
747;1401
747;1402
747;1403
747;1404
747;1405
747;1406
747;1407
747;1408
747;1409
747;1410
747;1411
747;1412
747;1413
747;1414
747;1415
747;1416
747;1417
747;1418
747;1419
747;1420
747;1421
747;1422
747;1423
747;1424
747;1425
747;1426
747;1427
747;1428
747;1429
747;1430
747;1431
747;1432
747;1433
747;1434
747;1435
747;1436
747;1437
747;1438
747;1439
747;1440
747;1441
747;1442
747;1443
747;1444
747;1445
747;1446
747;1447
747;1448
747;1449
747;1450
747;1451
747;1452
747;1453
747;1454
747;1455
747;1456
747;1457
747;1458
747;1459
747;1460
747;1461
747;1462
747;1463
747;1464
747;1465
747;1466
747;1467
747;1468
747;1469
747;1470
747;1471
747;1472
747;1473
747;1474
747;1475
747;1476
747;1477
747;1478
747;1479
747;1480
747;1481
747;1482
747;1483
747;1484
747;1485
747;1486
747;1487
747;1488
747;1489
747;1490
747;1491
747;1492
747;1493
747;1494
747;1495
747;1496
747;1497
747;1498
747;1499
747;1500
747;1501
747;1502
747;1503
747;1504
747;1505
747;1506
747;1507
747;1508
747;1509
747;1510
747;1511
747;1512
747;1513
747;1514
747;1515
747;1516
747;1517
747;1518
747;1519
747;1520
747;1521
747;1522
747;1523
747;1524
747;1525
747;1526
747;1527
747;1528
747;1529
747;1530
747;1531
747;1532
747;1533
747;1534
747;1535
747;1536
747;1537
747;1538
747;1539
747;1540
747;1541
747;1542
747;1543
748;1544
747;1545
747;1546
747;1547
747;1548
747;1549
747;1550
747;1551
747;1552
748;1553
747;1554
748;1555
748;1556
747;1557
747;1558
747;1559
747;1560
747;1561
747;1562
747;1563
748;1564
747;1565
747;1566
747;1567
748;1568
747;1569
747;1570
747;1571
747;1572
747;1573
747;1574
747;1575
748;1576
747;1577
747;1578
747;1579
747;1580
748;1581
747;1582
747;1583
747;1584
747;1585
748;1586
748;1587
748;1588
748;1589
748;1590
748;1591
748;1592
748;1593
748;1594
748;1595
748;1596
748;1597
748;1598
748;1599
748;1600
748;1601
748;1602
748;1603
748;1604
748;1605
748;1606
748;1607
748;1608
748;1609
748;1610
748;1611
748;1612
748;1613
748;1614
748;1615
748;1616
748;1617
748;1618
748;1619
748;1620
748;1621
748;1622
748;1623
748;1624
748;1625
748;1626
748;1627
748;1628
748;1629
748;1630
748;1631
748;1632
748;1633
748;1634
748;1635
748;1636
748;1637
748;1638
748;1639
748;1640
748;1641
748;1642
748;1643
748;1644
748;1645
748;1646
748;1647
748;1648
748;1649
748;1650
748;1651
748;1652
748;1653
748;1654
748;1655
748;1656
748;1657
748;1658
748;1659
748;1660
748;1661
748;1662
748;1663
748;1664
748;1665
748;1666
748;1667
748;1668
748;1669
748;1670
748;1671
748;1672
748;1673
748;1674
748;1675
748;1676
748;1677
748;1678
748;1679
748;1680
748;1681
748;1682
748;1683
748;1684
748;1685
748;1686
748;1687
748;1688
748;1689
748;1690
748;1691
748;1692
748;1693
748;1694
748;1695
748;1696
748;1697
748;1698
748;1699
748;1700
748;1701
748;1702
748;1703
748;1704
748;1705
748;1706
748;1707
748;1708
748;1709
748;1710
748;1711
748;1712
749;1713
748;1714
748;1715
748;1716
748;1717
748;1718
748;1719
748;1720
748;1721
748;1722
748;1723
748;1724
748;1725
748;1726
748;1727
748;1728
748;1729
748;1730
748;1731
748;1732
748;1733
748;1734
748;1735
748;1736
748;1737
748;1738
748;1739
748;1740
748;1741
748;1742
748;1743
748;1744
748;1745
748;1746
748;1747
748;1748
748;1749
748;1750
748;1751
748;1752
748;1753
748;1754
748;1755
748;1756
748;1757
748;1758
748;1759
748;1760
748;1761
748;1762
748;1763
748;1764
748;1765
748;1766
748;1767
748;1768
748;1769
748;1770
748;1771
748;1772
748;1773
748;1774
748;1775
748;1776
748;1777
748;1778
748;1779
748;1780
748;1781
748;1782
748;1783
748;1784
748;1785
748;1786
748;1787
748;1788
748;1789
748;1790
748;1791
748;1792
748;1793
748;1794
748;1795
747;1796
748;1797
747;1798
747;1799
748;1800
748;1801
748;1802
748;1803
748;1804
748;1805
747;1806
747;1807
748;1808
747;1809
747;1810
748;1811
748;1812
748;1813
748;1814
748;1815
748;1816
748;1817
748;1818
748;1819
748;1820
747;1821
748;1822
748;1823
747;1824
748;1825
748;1826
748;1827
748;1828
748;1829
747;1830
748;1831
748;1832
748;1833
747;1834
748;1835
748;1836
747;1837
747;1838
747;1839
747;1840
747;1841
747;1842
747;1843
747;1844
747;1845
747;1846
747;1847
747;1848
747;1849
747;1850
747;1851
747;1852
747;1853
747;1854
747;1855
747;1856
747;1857
747;1858
747;1859
747;1860
747;1861
747;1862
747;1863
747;1864
747;1865
747;1866
747;1867
747;1868
747;1869
747;1870
747;1871
747;1872
747;1873
747;1874
747;1875
747;1876
747;1877
747;1878
747;1879
747;1880
747;1881
747;1882
747;1883
747;1884
747;1885
747;1886
747;1887
747;1888
747;1889
747;1890
747;1891
747;1892
747;1893
747;1894
747;1895
747;1896
747;1897
747;1898
747;1899
747;1900
747;1901
747;1902
747;1903
747;1904
747;1905
747;1906
747;1907
746;1908
747;1909
747;1910
747;1911
747;1912
747;1913
747;1914
747;1915
747;1916
747;1917
747;1918
747;1919
747;1920
747;1921
747;1922
747;1923
747;1924
747;1925
747;1926
747;1927
747;1928
747;1929
747;1930
747;1931
747;1932
747;1933
747;1934
747;1935
747;1936
747;1937
747;1938
747;1939
747;1940
747;1941
747;1942
747;1943
747;1944
747;1945
747;1946
747;1947
747;1948
747;1949
747;1950
747;1951
747;1952
746;1953
747;1954
746;1955
747;1956
746;1957
746;1958
746;1959
747;1960
746;1961
747;1962
746;1963
746;1964
746;1965
746;1966
746;1967
746;1968
746;1969
746;1970
747;1971
746;1972
746;1973
746;1974
746;1975
746;1976
746;1977
746;1978
746;1979
746;1980
746;1981
747;1982
747;1983
747;1984
746;1985
746;1986
747;1987
747;1988
747;1989
747;1990
747;1991
747;1992
747;1993
747;1994
746;1995
747;1996
747;1997
747;1998
747;1999
747;2000
747;2001
747;2002
747;2003
747;2004
747;2005
746;2006
747;2007
746;2008
747;2009
747;2010
746;2011
746;2012
746;2013
746;2014
746;2015
746;2016
746;2017
746;2018
746;2019
746;2020
746;2021
746;2022
746;2023
746;2024
746;2025
746;2026
746;2027
746;2028
746;2029
746;2030
746;2031
746;2032
746;2033
746;2034
746;2035
746;2036
746;2037
746;2038
746;2039
746;2040
746;2041
746;2042
746;2043
746;2044
746;2045
746;2046
746;2047
746;2048
746;2049
746;2050
746;2051
746;2052
746;2053
746;2054
746;2055
746;2056
746;2057
746;2058
746;2059
746;2060
746;2061
746;2062
746;2063
746;2064
746;2065
746;2066
746;2067
746;2068
746;2069
746;2070
746;2071
746;2072
746;2073
746;2074
746;2075
746;2076
746;2077
746;2078
746;2079
746;2080
746;2081
746;2082
746;2083
746;2084
746;2085
746;2086
746;2087
746;2088
746;2089
746;2090
746;2091
746;2092
746;2093
746;2094
746;2095
746;2096
746;2097
746;2098
746;2099
746;2100
746;2101
746;2102
746;2103
746;2104
746;2105
746;2106
746;2107
746;2108
746;2109
746;2110
746;2111
746;2112
746;2113
746;2114
746;2115
746;2116
746;2117
746;2118
746;2119
746;2120
746;2121
746;2122
746;2123
746;2124
746;2125
746;2126
746;2127
746;2128
746;2129
746;2130
746;2131
746;2132
746;2133
746;2134
746;2135
746;2136
746;2137
746;2138
746;2139
746;2140
746;2141
746;2142
746;2143
746;2144
746;2145
746;2146
746;2147
746;2148
746;2149
746;2150
746;2151
746;2152
746;2153
746;2154
746;2155
746;2156
746;2157
746;2158
746;2159
746;2160
746;2161
746;2162
746;2163
746;2164
746;2165
746;2166
746;2167
746;2168
746;2169
746;2170
746;2171
746;2172
746;2173
746;2174
746;2175
746;2176
746;2177
746;2178
746;2179
746;2180
746;2181
746;2182
746;2183
746;2184
746;2185
746;2186
746;2187
746;2188
746;2189
746;2190
746;2191
746;2192
746;2193
746;2194
746;2195
746;2196
746;2197
746;2198
746;2199
746;2200
746;2201
746;2202
746;2203
746;2204
746;2205
746;2206
746;2207
746;2208
746;2209
746;2210
746;2211
746;2212
746;2213
746;2214
746;2215
746;2216
746;2217
747;2218
746;2219
746;2220
746;2221
746;2222
747;2223
747;2224
746;2225
746;2226
746;2227
746;2228
746;2229
746;2230
746;2231
746;2232
746;2233
746;2234
746;2235
746;2236
746;2237
746;2238
746;2239
746;2240
746;2241
746;2242
746;2243
746;2244
746;2245
746;2246
746;2247
746;2248
746;2249
746;2250
746;2251
746;2252
746;2253
746;2254
746;2255
746;2256
746;2257
746;2258
746;2259
746;2260
746;2261
746;2262
746;2263
746;2264
747;2265
746;2266
747;2267
747;2268
746;2269
746;2270
747;2271
746;2272
746;2273
747;2274
747;2275
747;2276
747;2277
747;2278
747;2279
747;2280
747;2281
746;2282
747;2283
747;2284
747;2285
746;2286
746;2287
747;2288
747;2289
747;2290
746;2291
747;2292
747;2293
747;2294
747;2295
747;2296
747;2297
747;2298
747;2299
746;2300
746;2301
746;2302
746;2303
746;2304
746;2305
746;2306
746;2307
746;2308
746;2309
747;2310
746;2311
746;2312
746;2313
746;2314
746;2315
746;2316
746;2317
746;2318
746;2319
746;2320
746;2321
746;2322
746;2323
746;2324
746;2325
746;2326
746;2327
746;2328
747;2329
747;2330
747;2331
747;2332
747;2333
747;2334
747;2335
747;2336
747;2337
747;2338
747;2339
747;2340
747;2341
747;2342
747;2343
747;2344
747;2345
747;2346
746;2347
747;2348
747;2349
746;2350
747;2351
747;2352
747;2353
747;2354
746;2355
746;2356
747;2357
747;2358
746;2359
746;2360
746;2361
746;2362
746;2363
746;2364
746;2365
746;2366
747;2367
746;2368
746;2369
746;2370
746;2371
746;2372
746;2373
746;2374
746;2375
746;2376
746;2377
746;2378
746;2379
746;2380
746;2381
746;2382
746;2383
746;2384
746;2385
746;2386
747;2387
747;2388
747;2389
746;2390
747;2391
747;2392
747;2393
746;2394
747;2395
746;2396
746;2397
747;2398
747;2399
747;2400
747;2401
747;2402
746;2403
747;2404
746;2405
746;2406
746;2407
747;2408
747;2409
747;2410
746;2411
746;2412
747;2413
747;2414
746;2415
747;2416
747;2417
747;2418
747;2419
746;2420
746;2421
746;2422
747;2423
747;2424
746;2425
746;2426
747;2427
746;2428
747;2429
747;2430
747;2431
747;2432
747;2433
747;2434
747;2435
747;2436
747;2437
747;2438
747;2439
747;2440
747;2441
747;2442
747;2443
747;2444
747;2445
747;2446
747;2447
747;2448
747;2449
747;2450
747;2451
747;2452
747;2453
747;2454
747;2455
747;2456
747;2457
747;2458
747;2459
747;2460
747;2461
747;2462
747;2463
747;2464
747;2465
747;2466
747;2467
747;2468
747;2469
747;2470
747;2471
747;2472
747;2473
747;2474
747;2475
747;2476
747;2477
747;2478
747;2479
747;2480
747;2481
747;2482
747;2483
747;2484
747;2485
747;2486
747;2487
747;2488
747;2489
747;2490
747;2491
747;2492
747;2493
747;2494
747;2495
747;2496
747;2497
747;2498
747;2499
747;2500
747;2501
747;2502
747;2503
747;2504
747;2505
747;2506
747;2507
747;2508
747;2509
747;2510
747;2511
747;2512
747;2513
747;2514
747;2515
747;2516
747;2517
747;2518
747;2519
747;2520
747;2521
747;2522
747;2523
747;2524
747;2525
747;2526
747;2527
747;2528
747;2529
747;2530
747;2531
747;2532
747;2533
747;2534
747;2535
747;2536
747;2537
747;2538
747;2539
747;2540
747;2541
747;2542
747;2543
747;2544
747;2545
747;2546
747;2547
747;2548
747;2549
747;2550
747;2551
747;2552
747;2553
747;2554
747;2555
747;2556
747;2557
747;2558
747;2559
747;2560
747;2561
747;2562
747;2563
747;2564
747;2565
747;2566
747;2567
747;2568
747;2569
747;2570
747;2571
747;2572
747;2573
747;2574
747;2575
747;2576
747;2577
747;2578
747;2579
747;2580
747;2581
747;2582
746;2583
747;2584
746;2585
747;2586
747;2587
747;2588
747;2589
747;2590
746;2591
746;2592
746;2593
747;2594
746;2595
747;2596
746;2597
747;2598
746;2599
746;2600
746;2601
747;2602
746;2603
746;2604
747;2605
746;2606
747;2607
747;2608
747;2609
747;2610
746;2611
746;2612
746;2613
747;2614
747;2615
746;2616
747;2617
746;2618
746;2619
746;2620
746;2621
746;2622
746;2623
746;2624
746;2625
746;2626
746;2627
746;2628
746;2629
746;2630
746;2631
746;2632
746;2633
746;2634
746;2635
746;2636
746;2637
746;2638
746;2639
746;2640
746;2641
746;2642
746;2643
746;2644
746;2645
746;2646
746;2647
746;2648
746;2649
746;2650
746;2651
746;2652
746;2653
747;2654
746;2655
746;2656
746;2657
746;2658
747;2659
746;2660
747;2661
747;2662
746;2663
747;2664
747;2665
747;2666
747;2667
747;2668
747;2669
747;2670
747;2671
747;2672
747;2673
747;2674
747;2675
747;2676
747;2677
747;2678
747;2679
747;2680
747;2681
747;2682
747;2683
747;2684
747;2685
747;2686
747;2687
747;2688
747;2689
747;2690
747;2691
747;2692
747;2693
747;2694
746;2695
746;2696
746;2697
746;2698
746;2699
746;2700
746;2701
746;2702
746;2703
746;2704
746;2705
746;2706
746;2707
746;2708
746;2709
746;2710
746;2711
746;2712
746;2713
746;2714
746;2715
747;2716
746;2717
747;2718
747;2719
747;2720
747;2721
747;2722
747;2723
747;2724
747;2725
747;2726
747;2727
747;2728
747;2729
747;2730
747;2731
747;2732
747;2733
747;2734
747;2735
747;2736
747;2737
747;2738
748;2739
748;2740
748;2741
748;2742
747;2743
748;2744
748;2745
747;2746
748;2747
748;2748
748;2749
748;2750
748;2751
748;2752
748;2753
748;2754
748;2755
748;2756
748;2757
748;2758
748;2759
748;2760
748;2761
748;2762
748;2763
748;2764
749;2765
748;2766
749;2767
748;2768
748;2769
748;2770
749;2771
748;2772
748;2773
749;2774
749;2775
748;2776
748;2777
748;2778
748;2779
749;2780
749;2781
749;2782
749;2783
749;2784
748;2785
748;2786
748;2787
749;2788
749;2789
748;2790
748;2791
748;2792
748;2793
748;2794
748;2795
748;2796
748;2797
748;2798
748;2799
748;2800
748;2801
748;2802
748;2803
748;2804
748;2805
748;2806
748;2807
748;2808
748;2809
748;2810
748;2811
748;2812
748;2813
748;2814
748;2815
748;2816
748;2817
748;2818
748;2819
748;2820
748;2821
748;2822
748;2823
748;2824
748;2825
748;2826
748;2827
749;2828
749;2829
749;2830
749;2831
749;2832
749;2833
749;2834
749;2835
749;2836
749;2837
749;2838
749;2839
749;2840
749;2841
749;2842
749;2843
749;2844
749;2845
749;2846
750;2847
749;2848
749;2849
749;2850
749;2851
749;2852
749;2853
749;2854
749;2855
749;2856
748;2857
748;2858
748;2859
748;2860
748;2861
748;2862
748;2863
748;2864
748;2865
748;2866
747;2867
747;2868
747;2869
747;2870
747;2871
747;2872
747;2873
747;2874
747;2875
747;2876
747;2877
747;2878
747;2879
747;2880
747;2881
747;2882
747;2883
747;2884
747;2885
747;2886
747;2887
747;2888
747;2889
747;2890
746;2891
747;2892
747;2893
747;2894
746;2895
747;2896
746;2897
746;2898
746;2899
746;2900
746;2901
746;2902
746;2903
746;2904
746;2905
746;2906
745;2907
746;2908
746;2909
746;2910
745;2911
746;2912
746;2913
745;2914
746;2915
746;2916
746;2917
746;2918
745;2919
745;2920
745;2921
745;2922
745;2923
745;2924
745;2925
745;2926
745;2927
745;2928
746;2929
746;2930
746;2931
746;2932
746;2933
746;2934
746;2935
746;2936
746;2937
746;2938
746;2939
747;2940
747;2941
747;2942
747;2943
747;2944
746;2945
747;2946
747;2947
747;2948
747;2949
747;2950
747;2951
747;2952
747;2953
747;2954
747;2955
747;2956
747;2957
748;2958
748;2959
748;2960
748;2961
748;2962
748;2963
748;2964
748;2965
748;2966
748;2967
748;2968
748;2969
748;2970
748;2971
747;2972
747;2973
747;2974
747;2975
747;2976
746;2977
746;2978
746;2979
746;2980
746;2981
745;2982
745;2983
745;2984
745;2985
745;2986
745;2987
745;2988
745;2989
746;2990
746;2991
746;2992
747;2993
746;2994
747;2995
747;2996
747;2997
747;2998
747;2999
748;3000
748;3001
748;3002
748;3003
748;3004
749;3005
748;3006
749;3007
749;3008
749;3009
749;3010
748;3011
749;3012
748;3013
748;3014
748;3015
748;3016
748;3017
748;3018
748;3019
748;3020
748;3021
748;3022
748;3023
748;3024
748;3025
748;3026
748;3027
748;3028
748;3029
747;3030
747;3031
747;3032
747;3033
747;3034
747;3035
747;3036
747;3037
747;3038
747;3039
748;3040
748;3041
748;3042
748;3043
748;3044
748;3045
748;3046
748;3047
748;3048
747;3049
747;3050
746;3051
746;3052
745;3053
745;3054
745;3055
744;3056
744;3057
744;3058
744;3059
744;3060
744;3061
744;3062
743;3063
743;3064
744;3065
743;3066
743;3067
744;3068
744;3069
744;3070
744;3071
744;3072
745;3073
745;3074
745;3075
745;3076
745;3077
745;3078
745;3079
745;3080
746;3081
745;3082
745;3083
745;3084
745;3085
745;3086
746;3087
746;3088
746;3089
746;3090
746;3091
747;3092
747;3093
747;3094
747;3095
746;3096
746;3097
746;3098
746;3099
746;3100
746;3101
745;3102
746;3103
746;3104
745;3105
745;3106
746;3107
745;3108
746;3109
746;3110
746;3111
746;3112
746;3113
746;3114
747;3115
747;3116
747;3117
747;3118
748;3119
748;3120
748;3121
749;3122
749;3123
749;3124
749;3125
749;3126
749;3127
749;3128
749;3129
749;3130
749;3131
749;3132
749;3133
749;3134
749;3135
749;3136
749;3137
749;3138
750;3139
750;3140
750;3141
749;3142
750;3143
750;3144
750;3145
750;3146
750;3147
750;3148
750;3149
750;3150
750;3151
749;3152
750;3153
749;3154
749;3155
749;3156
749;3157
749;3158
749;3159
749;3160
749;3161
748;3162
749;3163
749;3164
749;3165
749;3166
749;3167
748;3168
748;3169
748;3170
748;3171
748;3172
749;3173
748;3174
748;3175
748;3176
749;3177
748;3178
748;3179
749;3180
748;3181
748;3182
749;3183
749;3184
749;3185
749;3186
749;3187
749;3188
749;3189
749;3190
749;3191
749;3192
749;3193
749;3194
750;3195
750;3196
750;3197
750;3198
750;3199
750;3200
750;3201
750;3202
750;3203
751;3204
750;3205
751;3206
751;3207
751;3208
751;3209
751;3210
751;3211
751;3212
751;3213
751;3214
751;3215
751;3216
751;3217
751;3218
751;3219
751;3220
751;3221
751;3222
751;3223
751;3224
751;3225
751;3226
751;3227
751;3228
751;3229
751;3230
751;3231
751;3232
750;3233
750;3234
750;3235
750;3236
750;3237
749;3238
749;3239
749;3240
749;3241
749;3242
749;3243
749;3244
749;3245
749;3246
749;3247
749;3248
749;3249
749;3250
749;3251
749;3252
749;3253
748;3254
748;3255
748;3256
748;3257
748;3258
748;3259
748;3260
748;3261
749;3262
749;3263
749;3264
749;3265
749;3266
749;3267
750;3268
750;3269
750;3270
751;3271
751;3272
751;3273
751;3274
751;3275
751;3276
751;3277
752;3278
752;3279
752;3280
752;3281
752;3282
752;3283
752;3284
752;3285
752;3286
752;3287
752;3288
753;3289
752;3290
752;3291
752;3292
752;3293
751;3294
751;3295
751;3296
751;3297
751;3298
750;3299
750;3300
750;3301
750;3302
750;3303
750;3304
750;3305
750;3306
750;3307
751;3308
751;3309
751;3310
751;3311
751;3312
751;3313
751;3314
751;3315
751;3316
752;3317
752;3318
752;3319
751;3320
752;3321
752;3322
751;3323
751;3324
751;3325
751;3326
751;3327
751;3328
751;3329
751;3330
750;3331
749;3332
748;3333
748;3334
747;3335
746;3336
745;3337
744;3338
744;3339
743;3340
743;3341
743;3342
742;3343
742;3344
744;3345
745;3346
744;3347
744;3348
743;3349
743;3350
743;3351
743;3352
743;3353
743;3354
743;3355
743;3356
743;3357
744;3358
743;3359
743;3360
743;3361
743;3362
743;3363
743;3364
744;3365
744;3366
744;3367
745;3368
745;3369
745;3370
745;3371
746;3372
746;3373
747;3374
747;3375
747;3376
748;3377
748;3378
748;3379
749;3380
749;3381
750;3382
750;3383
750;3384
750;3385
751;3386
751;3387
751;3388
751;3389
752;3390
752;3391
752;3392
753;3393
753;3394
753;3395
753;3396
753;3397
754;3398
754;3399
754;3400
754;3401
755;3402
754;3403
754;3404
754;3405
754;3406
754;3407
755;3408
754;3409
754;3410
754;3411
754;3412
754;3413
754;3414
754;3415
754;3416
754;3417
754;3418
754;3419
754;3420
753;3421
753;3422
753;3423
753;3424
753;3425
753;3426
753;3427
753;3428
753;3429
753;3430
753;3431
753;3432
752;3433
752;3434
752;3435
751;3436
751;3437
750;3438
749;3439
749;3440
749;3441
748;3442
748;3443
748;3444
748;3445
748;3446
748;3447
748;3448
748;3449
748;3450
748;3451
749;3452
749;3453
750;3454
750;3455
750;3456
750;3457
750;3458
750;3459
751;3460
751;3461
751;3462
751;3463
751;3464
751;3465
751;3466
751;3467
751;3468
750;3469
750;3470
750;3471
750;3472
749;3473
749;3474
749;3475
749;3476
749;3477
749;3478
749;3479
749;3480
749;3481
749;3482
749;3483
749;3484
750;3485
750;3486
750;3487
750;3488
751;3489
751;3490
752;3491
752;3492
752;3493
751;3494
751;3495
751;3496
750;3497
749;3498
749;3499
749;3500
748;3501
747;3502
747;3503
746;3504
745;3505
745;3506
744;3507
744;3508
743;3509
741;3510
741;3511
741;3512
741;3513
740;3514
740;3515
740;3516
741;3517
741;3518
741;3519
741;3520
741;3521
742;3522
742;3523
743;3524
744;3525
744;3526
745;3527
745;3528
746;3529
747;3530
747;3531
747;3532
748;3533
749;3534
749;3535
749;3536
749;3537
750;3538
750;3539
750;3540
750;3541
751;3542
751;3543
751;3544
750;3545
750;3546
750;3547
750;3548
749;3549
749;3550
749;3551
749;3552
748;3553
748;3554
747;3555
747;3556
746;3557
746;3558
746;3559
745;3560
744;3561
744;3562
744;3563
744;3564
743;3565
743;3566
743;3567
743;3568
743;3569
744;3570
744;3571
745;3572
745;3573
745;3574
746;3575
746;3576
747;3577
747;3578
748;3579
749;3580
749;3581
750;3582
750;3583
751;3584
752;3585
752;3586
752;3587
752;3588
752;3589
752;3590
752;3591
752;3592
751;3593
751;3594
751;3595
750;3596
749;3597
749;3598
748;3599
748;3600
747;3601
747;3602
747;3603
747;3604
747;3605
747;3606
747;3607
747;3608
748;3609
748;3610
748;3611
748;3612
747;3613
748;3614
747;3615
747;3616
748;3617
748;3618
749;3619
749;3620
749;3621
749;3622
749;3623
750;3624
751;3625
751;3626
752;3627
753;3628
753;3629
754;3630
754;3631
754;3632
755;3633
755;3634
755;3635
755;3636
755;3637
756;3638
756;3639
757;3640
757;3641
757;3642
757;3643
757;3644
757;3645
757;3646
757;3647
758;3648
758;3649
758;3650
758;3651
758;3652
758;3653
758;3654
758;3655
759;3656
759;3657
759;3658
760;3659
760;3660
760;3661
761;3662
761;3663
761;3664
762;3665
762;3666
762;3667
762;3668
762;3669
762;3670
762;3671
762;3672
762;3673
762;3674
762;3675
762;3676
762;3677
762;3678
763;3679
763;3680
762;3681
763;3682
762;3683
762;3684
761;3685
761;3686
760;3687
760;3688
759;3689
758;3690
758;3691
757;3692
757;3693
756;3694
755;3695
755;3696
755;3697
755;3698
755;3699
755;3700
755;3701
755;3702
755;3703
756;3704
756;3705
756;3706
756;3707
757;3708
758;3709
757;3710
758;3711
758;3712
758;3713
759;3714
759;3715
760;3716
760;3717
760;3718
760;3719
761;3720
761;3721
761;3722
761;3723
761;3724
761;3725
761;3726
761;3727
761;3728
761;3729
761;3730
760;3731
759;3732
758;3733
757;3734
756;3735
755;3736
755;3737
754;3738
752;3739
751;3740
750;3741
749;3742
749;3743
748;3744
746;3745
745;3746
744;3747
743;3748
742;3749
742;3750
741;3751
741;3752
742;3753
742;3754
742;3755
742;3756
743;3757
743;3758
744;3759
744;3760
745;3761
745;3762
746;3763
747;3764
747;3765
746;3766
746;3767
746;3768
745;3769
745;3770
744;3771
744;3772
744;3773
744;3774
744;3775
744;3776
744;3777
744;3778
745;3779
746;3780
746;3781
747;3782
747;3783
748;3784
749;3785
749;3786
750;3787
751;3788
751;3789
752;3790
752;3791
752;3792
753;3793
753;3794
754;3795
754;3796
754;3797
755;3798
754;3799
755;3800
755;3801
755;3802
755;3803
755;3804
755;3805
755;3806
755;3807
755;3808
754;3809
754;3810
753;3811
753;3812
751;3813
751;3814
750;3815
750;3816
750;3817
749;3818
749;3819
749;3820
747;3821
747;3822
747;3823
746;3824
746;3825
746;3826
745;3827
745;3828
745;3829
745;3830
745;3831
745;3832
745;3833
745;3834
745;3835
745;3836
745;3837
746;3838
746;3839
746;3840
746;3841
746;3842
747;3843
746;3844
746;3845
746;3846
746;3847
746;3848
746;3849
746;3850
746;3851
746;3852
747;3853
747;3854
748;3855
748;3856
749;3857
749;3858
749;3859
749;3860
750;3861
750;3862
750;3863
751;3864
751;3865
751;3866
752;3867
752;3868
752;3869
752;3870
752;3871
752;3872
752;3873
751;3874
750;3875
749;3876
747;3877
746;3878
745;3879
744;3880
742;3881
741;3882
741;3883
740;3884
740;3885
740;3886
739;3887
738;3888
738;3889
736;3890
735;3891
733;3892
731;3893
730;3894
729;3895
728;3896
728;3897
728;3898
728;3899
728;3900
728;3901
729;3902
730;3903
731;3904
732;3905
733;3906
735;3907
735;3908
736;3909
736;3910
736;3911
734;3912
733;3913
732;3914
731;3915
730;3916
729;3917
728;3918
727;3919
727;3920
727;3921
727;3922
728;3923
728;3924
729;3925
729;3926
730;3927
730;3928
731;3929
731;3930
732;3931
733;3932
734;3933
734;3934
735;3935
736;3936
738;3937
739;3938
739;3939
740;3940
741;3941
741;3942
741;3943
740;3944
739;3945
738;3946
737;3947
736;3948
734;3949
733;3950
733;3951
732;3952
731;3953
731;3954
730;3955
730;3956
730;3957
730;3958
730;3959
729;3960
729;3961
729;3962
729;3963
728;3964
729;3965
729;3966
729;3967
729;3968
729;3969
729;3970
729;3971
728;3972
728;3973
728;3974
725;3975
724;3976
723;3977
722;3978
721;3979
720;3980
720;3981
721;3982
722;3983
723;3984
724;3985
725;3986
728;3987
730;3988
732;3989
734;3990
736;3991
738;3992
739;3993
742;3994
744;3995
745;3996
746;3997
747;3998
748;3999
749;4000
750;4001
751;4002
752;4003
753;4004
754;4005
755;4006
756;4007
757;4008
757;4009
757;4010
757;4011
757;4012
757;4013
757;4014
757;4015
758;4016
758;4017
758;4018
758;4019
758;4020
758;4021
758;4022
759;4023
759;4024
759;4025
759;4026
760;4027
760;4028
760;4029
760;4030
760;4031
760;4032
759;4033
758;4034
758;4035
755;4036
754;4037
753;4038
753;4039
751;4040
749;4041
747;4042
742;4043
740;4044
739;4045
737;4046
736;4047
735;4048
735;4049
735;4050
735;4051
736;4052
737;4053
738;4054
740;4055
741;4056
742;4057
743;4058
744;4059
746;4060
748;4061
749;4062
750;4063
752;4064
753;4065
754;4066
756;4067
757;4068
758;4069
758;4070
757;4071
756;4072
755;4073
753;4074
751;4075
749;4076
747;4077
745;4078
744;4079
742;4080
741;4081
740;4082
740;4083
740;4084
740;4085
740;4086
740;4087
739;4088
739;4089
739;4090
739;4091
739;4092
739;4093
739;4094
739;4095
740;4096
740;4097
741;4098
743;4099
744;4100
745;4101
746;4102
747;4103
747;4104
748;4105
748;4106
748;4107
748;4108
747;4109
747;4110
745;4111
745;4112
744;4113
742;4114
740;4115
739;4116
736;4117
735;4118
735;4119
736;4120
736;4121
737;4122
739;4123
741;4124
743;4125
744;4126
746;4127
748;4128
750;4129
754;4130
756;4131
758;4132
760;4133
762;4134
764;4135
765;4136
765;4137
766;4138
766;4139
766;4140
766;4141
766;4142
766;4143
767;4144
767;4145
768;4146
768;4147
769;4148
769;4149
769;4150
770;4151
770;4152
770;4153
770;4154
771;4155
771;4156
771;4157
771;4158
771;4159
771;4160
771;4161
771;4162
771;4163
771;4164
771;4165
772;4166
772;4167
771;4168
771;4169
771;4170
770;4171
770;4172
769;4173
769;4174
769;4175
769;4176
768;4177
767;4178
766;4179
765;4180
764;4181
762;4182
761;4183
759;4184
757;4185
755;4186
754;4187
752;4188
751;4189
750;4190
749;4191
748;4192
748;4193
748;4194
748;4195
749;4196
751;4197
751;4198
752;4199
753;4200
753;4201
754;4202
755;4203
755;4204
755;4205
756;4206
757;4207
757;4208
758;4209
758;4210
759;4211
759;4212
759;4213
759;4214
759;4215
760;4216
760;4217
760;4218
760;4219
760;4220
761;4221
762;4222
762;4223
763;4224
763;4225
763;4226
763;4227
764;4228
764;4229
765;4230
765;4231
765;4232
766;4233
766;4234
766;4235
766;4236
767;4237
767;4238
767;4239
767;4240
768;4241
768;4242
768;4243
768;4244
768;4245
769;4246
769;4247
769;4248
769;4249
769;4250
769;4251
769;4252
769;4253
769;4254
769;4255
768;4256
768;4257
767;4258
766;4259
765;4260
764;4261
763;4262
762;4263
761;4264
760;4265
758;4266
756;4267
754;4268
752;4269
750;4270
748;4271
744;4272
742;4273
741;4274
739;4275
738;4276
737;4277
736;4278
735;4279
736;4280
736;4281
736;4282
737;4283
739;4284
740;4285
741;4286
743;4287
744;4288
746;4289
748;4290
749;4291
751;4292
752;4293
753;4294
754;4295
756;4296
757;4297
758;4298
759;4299
759;4300
760;4301
760;4302
761;4303
762;4304
763;4305
763;4306
763;4307
764;4308
764;4309
764;4310
765;4311
765;4312
765;4313
765;4314
764;4315
763;4316
762;4317
762;4318
760;4319
759;4320
757;4321
757;4322
755;4323
755;4324
754;4325
754;4326
753;4327
754;4328
753;4329
754;4330
754;4331
755;4332
755;4333
757;4334
758;4335
758;4336
759;4337
760;4338
761;4339
760;4340
760;4341
760;4342
759;4343
759;4344
759;4345
759;4346
759;4347
758;4348
758;4349
757;4350
756;4351
755;4352
755;4353
754;4354
753;4355
752;4356
751;4357
749;4358
744;4359
742;4360
740;4361
738;4362
737;4363
736;4364
735;4365
734;4366
734;4367
735;4368
735;4369
736;4370
738;4371
739;4372
741;4373
742;4374
743;4375
745;4376
748;4377
749;4378
748;4379
747;4380
746;4381
745;4382
744;4383
744;4384
744;4385
743;4386
743;4387
744;4388
743;4389
742;4390
741;4391
739;4392
738;4393
737;4394
737;4395
736;4396
736;4397
735;4398
735;4399
733;4400
733;4401
732;4402
732;4403
732;4404
732;4405
732;4406
731;4407
731;4408
731;4409
731;4410
732;4411
732;4412
732;4413
734;4414
735;4415
736;4416
738;4417
739;4418
741;4419
743;4420
747;4421
749;4422
751;4423
753;4424
755;4425
757;4426
761;4427
763;4428
765;4429
766;4430
768;4431
769;4432
771;4433
771;4434
771;4435
771;4436
771;4437
771;4438
771;4439
771;4440
771;4441
770;4442
769;4443
769;4444
766;4445
765;4446
763;4447
761;4448
759;4449
758;4450
756;4451
754;4452
753;4453
752;4454
751;4455
750;4456
749;4457
746;4458
744;4459
742;4460
740;4461
738;4462
736;4463
734;4464
733;4465
733;4466
732;4467
732;4468
732;4469
733;4470
734;4471
735;4472
736;4473
737;4474
738;4475
738;4476
741;4477
742;4478
743;4479
745;4480
746;4481
747;4482
750;4483
751;4484
753;4485
754;4486
755;4487
756;4488
755;4489
752;4490
748;4491
744;4492
739;4493
735;4494
728;4495
725;4496
723;4497
722;4498
720;4499
720;4500
720;4501
720;4502
721;4503
723;4504
724;4505
726;4506
728;4507
733;4508
735;4509
737;4510
738;4511
740;4512
741;4513
743;4514
745;4515
746;4516
747;4517
749;4518
750;4519
752;4520
752;4521
751;4522
750;4523
748;4524
745;4525
740;4526
738;4527
736;4528
734;4529
733;4530
732;4531
732;4532
732;4533
732;4534
732;4535
733;4536
734;4537
736;4538
739;4539
741;4540
743;4541
745;4542
747;4543
748;4544
751;4545
751;4546
751;4547
749;4548
748;4549
746;4550
744;4551
743;4552
742;4553
742;4554
742;4555
743;4556
745;4557
746;4558
747;4559
749;4560
751;4561
752;4562
755;4563
756;4564
758;4565
759;4566
760;4567
760;4568
761;4569
761;4570
761;4571
760;4572
759;4573
758;4574
756;4575
754;4576
754;4577
753;4578
753;4579
752;4580
752;4581
752;4582
752;4583
753;4584
753;4585
752;4586
751;4587
749;4588
747;4589
746;4590
746;4591
745;4592
745;4593
744;4594
744;4595
744;4596
745;4597
746;4598
746;4599
748;4600
749;4601
750;4602
752;4603
753;4604
753;4605
753;4606
752;4607
752;4608
752;4609
752;4610
752;4611
750;4612
745;4613
743;4614
740;4615
738;4616
737;4617
736;4618
732;4619
729;4620
728;4621
725;4622
723;4623
722;4624
718;4625
717;4626
716;4627
716;4628
715;4629
716;4630
718;4631
719;4632
722;4633
724;4634
727;4635
729;4636
733;4637
740;4638
743;4639
746;4640
748;4641
751;4642
755;4643
759;4644
762;4645
764;4646
766;4647
767;4648
768;4649
770;4650
771;4651
771;4652
771;4653
770;4654
770;4655
767;4656
767;4657
765;4658
764;4659
762;4660
761;4661
758;4662
755;4663
753;4664
751;4665
749;4666
747;4667
746;4668
746;4669
746;4670
747;4671
748;4672
749;4673
751;4674
754;4675
756;4676
757;4677
758;4678
760;4679
761;4680
763;4681
764;4682
763;4683
763;4684
763;4685
763;4686
762;4687
761;4688
760;4689
758;4690
757;4691
756;4692
754;4693
754;4694
753;4695
753;4696
753;4697
753;4698
754;4699
755;4700
756;4701
758;4702
759;4703
761;4704
763;4705
766;4706
768;4707
769;4708
771;4709
772;4710
773;4711
772;4712
770;4713
767;4714
765;4715
764;4716
762;4717
761;4718
760;4719
761;4720
761;4721
761;4722
761;4723
762;4724
763;4725
764;4726
764;4727
764;4728
763;4729
762;4730
760;4731
758;4732
756;4733
754;4734
752;4735
750;4736
747;4737
746;4738
745;4739
745;4740
746;4741
746;4742
748;4743
748;4744
749;4745
750;4746
751;4747
752;4748
752;4749
752;4750
751;4751
750;4752
749;4753
748;4754
746;4755
746;4756
745;4757
744;4758
743;4759
743;4760
742;4761
741;4762
742;4763
742;4764
742;4765
743;4766
744;4767
746;4768
747;4769
748;4770
749;4771
751;4772
753;4773
755;4774
756;4775
757;4776
758;4777
759;4778
760;4779
762;4780
762;4781
762;4782
762;4783
761;4784
761;4785
760;4786
758;4787
758;4788
757;4789
757;4790
756;4791
756;4792
756;4793
757;4794
757;4795
758;4796
759;4797
759;4798
759;4799
759;4800
759;4801
759;4802
759;4803
759;4804
758;4805
758;4806
757;4807
755;4808
755;4809
754;4810
754;4811
754;4812
755;4813
757;4814
758;4815
760;4816
763;4817
765;4818
767;4819
769;4820
771;4821
773;4822
775;4823
777;4824
778;4825
779;4826
779;4827
780;4828
780;4829
781;4830
781;4831
781;4832
782;4833
782;4834
781;4835
780;4836
780;4837
780;4838
779;4839
779;4840
779;4841
778;4842
778;4843
777;4844
776;4845
775;4846
774;4847
772;4848
771;4849
769;4850
767;4851
765;4852
764;4853
761;4854
759;4855
757;4856
754;4857
752;4858
751;4859
747;4860
746;4861
745;4862
744;4863
744;4864
744;4865
745;4866
745;4867
746;4868
747;4869
747;4870
747;4871
747;4872
748;4873
748;4874
748;4875
748;4876
748;4877
748;4878
748;4879
749;4880
750;4881
751;4882
752;4883
754;4884
755;4885
756;4886
756;4887
757;4888
757;4889
758;4890
758;4891
758;4892
757;4893
757;4894
756;4895
755;4896
753;4897
751;4898
749;4899
747;4900
745;4901
743;4902
741;4903
738;4904
735;4905
733;4906
731;4907
729;4908
727;4909
722;4910
720;4911
720;4912
719;4913
719;4914
720;4915
722;4916
723;4917
725;4918
726;4919
727;4920
728;4921
731;4922
733;4923
734;4924
735;4925
736;4926
736;4927
737;4928
738;4929
739;4930
740;4931
740;4932
741;4933
743;4934
745;4935
746;4936
746;4937
746;4938
746;4939
746;4940
746;4941
746;4942
746;4943
746;4944
746;4945
747;4946
747;4947
748;4948
748;4949
749;4950
749;4951
750;4952
752;4953
753;4954
754;4955
754;4956
753;4957
753;4958
754;4959
754;4960
753;4961
751;4962
748;4963
745;4964
742;4965
736;4966
734;4967
733;4968
733;4969
733;4970
733;4971
736;4972
737;4973
736;4974
734;4975
732;4976
730;4977
728;4978
727;4979
727;4980
727;4981
727;4982
728;4983
730;4984
731;4985
733;4986
735;4987
736;4988
738;4989
740;4990
744;4991
746;4992
748;4993
750;4994
751;4995
752;4996
754;4997
754;4998
754;4999
755;5000
755;5001
756;5002
757;5003
758;5004
758;5005
759;5006
759;5007
759;5008
758;5009
756;5010
753;5011
750;5012
747;5013
743;5014
738;5015
735;5016
732;5017
729;5018
726;5019
724;5020
722;5021
719;5022
719;5023
719;5024
719;5025
719;5026
721;5027
725;5028
727;5029
729;5030
732;5031
734;5032
736;5033
739;5034
740;5035
742;5036
741;5037
742;5038
743;5039
744;5040
746;5041
747;5042
748;5043
749;5044
750;5045
751;5046
753;5047
753;5048
754;5049
753;5050
751;5051
749;5052
744;5053
742;5054
741;5055
740;5056
739;5057
740;5058
742;5059
742;5060
743;5061
743;5062
743;5063
745;5064
746;5065
747;5066
748;5067
749;5068
749;5069
750;5070
751;5071
754;5072
754;5073
755;5074
755;5075
757;5076
756;5077
758;5078
759;5079
759;5080
760;5081
761;5082
760;5083
755;5084
753;5085
750;5086
748;5087
745;5088
743;5089
741;5090
741;5091
741;5092
741;5093
742;5094
744;5095
749;5096
752;5097
754;5098
757;5099
759;5100
761;5101
763;5102
765;5103
766;5104
766;5105
766;5106
766;5107
765;5108
765;5109
764;5110
764;5111
764;5112
763;5113
761;5114
757;5115
755;5116
754;5117
752;5118
751;5119
749;5120
744;5121
739;5122
733;5123
728;5124
724;5125
719;5126
716;5127
711;5128
710;5129
710;5130
711;5131
713;5132
715;5133
719;5134
721;5135
723;5136
724;5137
726;5138
728;5139
733;5140
736;5141
740;5142
742;5143
745;5144
747;5145
749;5146
748;5147
749;5148
749;5149
749;5150
750;5151
750;5152
749;5153
749;5154
748;5155
747;5156
745;5157
743;5158
738;5159
736;5160
733;5161
732;5162
731;5163
730;5164
729;5165
730;5166
730;5167
730;5168
730;5169
730;5170
732;5171
733;5172
735;5173
738;5174
740;5175
743;5176
750;5177
752;5178
754;5179
756;5180
758;5181
759;5182
761;5183
761;5184
762;5185
763;5186
762;5187
761;5188
760;5189
755;5190
752;5191
750;5192
748;5193
747;5194
746;5195
746;5196
746;5197
748;5198
749;5199
751;5200
752;5201
755;5202
757;5203
759;5204
760;5205
761;5206
763;5207
764;5208
767;5209
768;5210
769;5211
771;5212
771;5213
772;5214
772;5215
772;5216
772;5217
771;5218
771;5219
771;5220
770;5221
770;5222
769;5223
767;5224
765;5225
763;5226
760;5227
759;5228
757;5229
757;5230
756;5231
755;5232
756;5233
757;5234
758;5235
759;5236
759;5237
759;5238
758;5239
758;5240
757;5241
756;5242
755;5243
754;5244
753;5245
752;5246
748;5247
745;5248
742;5249
738;5250
735;5251
724;5252
719;5253
715;5254
713;5255
710;5256
709;5257
709;5258
710;5259
712;5260
713;5261
715;5262
715;5263
716;5264
717;5265
718;5266
720;5267
722;5268
724;5269
728;5270
730;5271
733;5272
736;5273
739;5274
742;5275
749;5276
753;5277
756;5278
760;5279
763;5280
766;5281
771;5282
774;5283
775;5284
775;5285
774;5286
772;5287
771;5288
770;5289
770;5290
770;5291
770;5292
771;5293
771;5294
773;5295
775;5296
776;5297
777;5298
779;5299
780;5300
783;5301
785;5302
786;5303
788;5304
789;5305
790;5306
792;5307
793;5308
794;5309
795;5310
796;5311
796;5312
798;5313
798;5314
799;5315
799;5316
800;5317
800;5318
800;5319
799;5320
798;5321
797;5322
796;5323
795;5324
793;5325
788;5326
785;5327
782;5328
779;5329
776;5330
773;5331
767;5332
762;5333
757;5334
752;5335
747;5336
742;5337
734;5338
732;5339
729;5340
728;5341
728;5342
729;5343
730;5344
735;5345
739;5346
742;5347
746;5348
749;5349
753;5350
761;5351
764;5352
767;5353
767;5354
767;5355
764;5356
759;5357
756;5358
752;5359
749;5360
747;5361
745;5362
743;5363
742;5364
742;5365
742;5366
743;5367
744;5368
745;5369
751;5370
753;5371
755;5372
758;5373
760;5374
762;5375
764;5376
764;5377
765;5378
765;5379
766;5380
767;5381
767;5382
767;5383
768;5384
768;5385
768;5386
768;5387
765;5388
764;5389
762;5390
761;5391
760;5392
760;5393
760;5394
760;5395
760;5396
760;5397
760;5398
761;5399
762;5400
765;5401
767;5402
769;5403
771;5404
773;5405
776;5406
781;5407
783;5408
785;5409
787;5410
788;5411
790;5412
792;5413
793;5414
794;5415
795;5416
796;5417
797;5418
796;5419
795;5420
794;5421
792;5422
790;5423
787;5424
783;5425
779;5426
774;5427
768;5428
762;5429
755;5430
750;5431
743;5432
740;5433
738;5434
736;5435
735;5436
735;5437
735;5438
736;5439
737;5440
738;5441
739;5442
739;5443
738;5444
737;5445
736;5446
736;5447
735;5448
735;5449
735;5450
734;5451
734;5452
734;5453
734;5454
734;5455
735;5456
737;5457
738;5458
740;5459
741;5460
742;5461
744;5462
746;5463
748;5464
749;5465
751;5466
753;5467
754;5468
757;5469
759;5470
760;5471
761;5472
762;5473
763;5474
763;5475
762;5476
761;5477
759;5478
758;5479
756;5480
755;5481
754;5482
754;5483
755;5484
755;5485
755;5486
757;5487
758;5488
759;5489
761;5490
762;5491
763;5492
766;5493
767;5494
768;5495
769;5496
770;5497
769;5498
770;5499
769;5500
767;5501
767;5502
767;5503
766;5504
766;5505
764;5506
762;5507
761;5508
759;5509
758;5510
758;5511
758;5512
758;5513
759;5514
760;5515
762;5516
763;5517
767;5518
768;5519
770;5520
771;5521
772;5522
774;5523
777;5524
779;5525
779;5526
780;5527
780;5528
781;5529
781;5530
782;5531
782;5532
783;5533
783;5534
783;5535
782;5536
780;5537
779;5538
778;5539
777;5540
776;5541
775;5542
774;5543
772;5544
770;5545
768;5546
767;5547
765;5548
765;5549
764;5550
764;5551
764;5552
765;5553
765;5554
765;5555
762;5556
761;5557
759;5558
758;5559
756;5560
754;5561
750;5562
749;5563
747;5564
746;5565
744;5566
743;5567
740;5568
739;5569
739;5570
739;5571
740;5572
741;5573
744;5574
746;5575
747;5576
749;5577
751;5578
752;5579
753;5580
753;5581
752;5582
751;5583
748;5584
746;5585
743;5586
740;5587
740;5588
739;5589
739;5590
739;5591
739;5592
740;5593
740;5594
741;5595
741;5596
742;5597
741;5598
740;5599
740;5600
739;5601
738;5602
737;5603
737;5604
737;5605
736;5606
737;5607
738;5608
739;5609
741;5610
746;5611
748;5612
750;5613
752;5614
752;5615
752;5616
751;5617
748;5618
745;5619
743;5620
742;5621
741;5622
740;5623
740;5624
741;5625
742;5626
744;5627
747;5628
750;5629
755;5630
756;5631
755;5632
752;5633
749;5634
747;5635
740;5636
737;5637
734;5638
731;5639
728;5640
727;5641
727;5642
729;5643
730;5644
732;5645
732;5646
732;5647
732;5648
731;5649
730;5650
730;5651
731;5652
731;5653
731;5654
732;5655
734;5656
734;5657
735;5658
736;5659
737;5660
738;5661
738;5662
739;5663
739;5664
738;5665
739;5666
740;5667
741;5668
741;5669
743;5670
744;5671
746;5672
747;5673
750;5674
751;5675
754;5676
756;5677
758;5678
760;5679
764;5680
765;5681
767;5682
768;5683
770;5684
772;5685
775;5686
776;5687
776;5688
777;5689
777;5690
778;5691
778;5692
778;5693
777;5694
776;5695
775;5696
774;5697
764;5698
757;5699
750;5700
741;5701
733;5702
727;5703
721;5704
713;5705
710;5706
708;5707
706;5708
705;5709
705;5710
708;5711
711;5712
715;5713
718;5714
722;5715
726;5716
735;5717
738;5718
741;5719
745;5720
747;5721
749;5722
751;5723
752;5724
753;5725
754;5726
755;5727
757;5728
758;5729
760;5730
760;5731
760;5732
760;5733
759;5734
758;5735
754;5736
750;5737
747;5738
744;5739
741;5740
739;5741
737;5742
737;5743
737;5744
738;5745
739;5746
740;5747
742;5748
743;5749
744;5750
745;5751
746;5752
747;5753
750;5754
752;5755
753;5756
754;5757
755;5758
756;5759
758;5760
759;5761
761;5762
762;5763
764;5764
766;5765
769;5766
770;5767
771;5768
773;5769
774;5770
775;5771
776;5772
778;5773
779;5774
779;5775
779;5776
779;5777
778;5778
775;5779
774;5780
773;5781
772;5782
770;5783
768;5784
765;5785
764;5786
763;5787
762;5788
762;5789
760;5790
758;5791
758;5792
759;5793
760;5794
761;5795
763;5796
766;5797
766;5798
765;5799
763;5800
759;5801
754;5802
745;5803
740;5804
737;5805
734;5806
731;5807
728;5808
726;5809
726;5810
726;5811
727;5812
729;5813
731;5814
734;5815
741;5816
743;5817
747;5818
750;5819
752;5820
755;5821
758;5822
760;5823
763;5824
765;5825
767;5826
769;5827
772;5828
774;5829
775;5830
776;5831
777;5832
777;5833
775;5834
773;5835
769;5836
764;5837
760;5838
756;5839
749;5840
747;5841
744;5842
743;5843
741;5844
740;5845
739;5846
737;5847
736;5848
735;5849
735;5850
736;5851
736;5852
738;5853
739;5854
740;5855
741;5856
742;5857
742;5858
745;5859
746;5860
748;5861
748;5862
748;5863
747;5864
745;5865
744;5866
742;5867
742;5868
741;5869
741;5870
742;5871
743;5872
744;5873
745;5874
747;5875
748;5876
750;5877
752;5878
754;5879
756;5880
757;5881
758;5882
759;5883
760;5884
761;5885
762;5886
762;5887
763;5888
763;5889
764;5890
764;5891
765;5892
765;5893
765;5894
765;5895
765;5896
765;5897
764;5898
762;5899
760;5900
757;5901
753;5902
751;5903
749;5904
748;5905
747;5906
746;5907
746;5908
747;5909
749;5910
751;5911
753;5912
755;5913
757;5914
757;5915
758;5916
758;5917
758;5918
759;5919
758;5920
758;5921
757;5922
757;5923
756;5924
756;5925
755;5926
754;5927
754;5928
754;5929
753;5930
754;5931
754;5932
755;5933
756;5934
757;5935
759;5936
761;5937
762;5938
765;5939
766;5940
767;5941
768;5942
769;5943
770;5944
772;5945
773;5946
774;5947
775;5948
776;5949
777;5950
779;5951
779;5952
780;5953
781;5954
782;5955
783;5956
783;5957
783;5958
783;5959
782;5960
781;5961
781;5962
778;5963
773;5964
769;5965
766;5966
762;5967
759;5968
756;5969
751;5970
750;5971
748;5972
748;5973
747;5974
745;5975
744;5976
744;5977
744;5978
745;5979
746;5980
747;5981
749;5982
750;5983
752;5984
753;5985
754;5986
754;5987
752;5988
752;5989
751;5990
751;5991
751;5992
751;5993
751;5994
750;5995
750;5996
750;5997
750;5998
751;5999
752;6000
754;6001
756;6002
758;6003
760;6004
762;6005
764;6006
768;6007
770;6008
772;6009
774;6010
775;6011
775;6012
764;6013
756;6014
748;6015
739;6016
732;6017
724;6018
718;6019
709;6020
704;6021
701;6022
698;6023
697;6024
696;6025
699;6026
702;6027
706;6028
710;6029
715;6030
721;6031
730;6032
735;6033
739;6034
742;6035
746;6036
749;6037
756;6038
758;6039
760;6040
760;6041
761;6042
761;6043
762;6044
762;6045
763;6046
764;6047
765;6048
766;6049
767;6050
768;6051
768;6052
768;6053
768;6054
768;6055
767;6056
766;6057
765;6058
764;6059
764;6060
764;6061
763;6062
762;6063
760;6064
758;6065
756;6066
754;6067
751;6068
745;6069
742;6070
741;6071
739;6072
739;6073
739;6074
740;6075
742;6076
743;6077
745;6078
748;6079
749;6080
752;6081
757;6082
760;6083
763;6084
766;6085
769;6086
771;6087
775;6088
776;6089
777;6090
778;6091
780;6092
781;6093
783;6094
785;6095
786;6096
786;6097
787;6098
787;6099
788;6100
788;6101
789;6102
789;6103
790;6104
790;6105
789;6106
789;6107
789;6108
788;6109
787;6110
785;6111
782;6112
779;6113
778;6114
776;6115
774;6116
773;6117
771;6118
768;6119
767;6120
766;6121
765;6122
764;6123
764;6124
764;6125
764;6126
764;6127
764;6128
764;6129
764;6130
763;6131
763;6132
762;6133
761;6134
760;6135
758;6136
750;6137
745;6138
740;6139
735;6140
731;6141
728;6142
723;6143
723;6144
723;6145
723;6146
725;6147
727;6148
729;6149
736;6150
739;6151
742;6152
745;6153
749;6154
752;6155
757;6156
760;6157
762;6158
765;6159
767;6160
769;6161
772;6162
772;6163
771;6164
771;6165
770;6166
768;6167
764;6168
762;6169
760;6170
756;6171
752;6172
747;6173
742;6174
736;6175
733;6176
732;6177
731;6178
731;6179
732;6180
734;6181
735;6182
738;6183
739;6184
740;6185
741;6186
744;6187
744;6188
744;6189
744;6190
744;6191
743;6192
743;6193
742;6194
741;6195
741;6196
740;6197
740;6198
740;6199
740;6200
739;6201
739;6202
740;6203
740;6204
742;6205
743;6206
744;6207
745;6208
746;6209
747;6210
748;6211
750;6212
750;6213
751;6214
752;6215
754;6216
754;6217
757;6218
759;6219
760;6220
761;6221
763;6222
765;6223
767;6224
769;6225
770;6226
771;6227
771;6228
772;6229
774;6230
774;6231
774;6232
775;6233
775;6234
776;6235
776;6236
776;6237
776;6238
777;6239
777;6240
777;6241
778;6242
778;6243
778;6244
778;6245
777;6246
777;6247
777;6248
775;6249
774;6250
773;6251
771;6252
769;6253
766;6254
761;6255
759;6256
758;6257
756;6258
755;6259
755;6260
752;6261
748;6262
745;6263
741;6264
738;6265
734;6266
730;6267
727;6268
725;6269
724;6270
722;6271
722;6272
723;6273
723;6274
724;6275
725;6276
727;6277
728;6278
729;6279
729;6280
728;6281
729;6282
730;6283
731;6284
732;6285
733;6286
733;6287
734;6288
735;6289
735;6290
736;6291
736;6292
737;6293
738;6294
738;6295
738;6296
738;6297
736;6298
736;6299
737;6300
737;6301
737;6302
737;6303
737;6304
738;6305
738;6306
738;6307
739;6308
740;6309
740;6310
742;6311
743;6312
743;6313
743;6314
741;6315
740;6316
736;6317
733;6318
731;6319
729;6320
727;6321
725;6322
722;6323
721;6324
720;6325
721;6326
721;6327
721;6328
721;6329
722;6330
723;6331
725;6332
725;6333
727;6334
728;6335
730;6336
733;6337
735;6338
738;6339
740;6340
743;6341
748;6342
751;6343
754;6344
756;6345
758;6346
760;6347
765;6348
766;6349
767;6350
768;6351
770;6352
771;6353
774;6354
774;6355
775;6356
776;6357
777;6358
777;6359
778;6360
778;6361
778;6362
778;6363
778;6364
778;6365
778;6366
778;6367
778;6368
778;6369
777;6370
776;6371
773;6372
765;6373
760;6374
756;6375
752;6376
747;6377
743;6378
735;6379
730;6380
727;6381
724;6382
721;6383
720;6384
718;6385
717;6386
718;6387
718;6388
719;6389
720;6390
722;6391
722;6392
724;6393
725;6394
727;6395
729;6396
731;6397
737;6398
740;6399
743;6400
746;6401
748;6402
750;6403
755;6404
758;6405
761;6406
763;6407
766;6408
767;6409
769;6410
770;6411
770;6412
769;6413
767;6414
764;6415
760;6416
757;6417
754;6418
751;6419
747;6420
744;6421
737;6422
735;6423
733;6424
732;6425
731;6426
731;6427
732;6428
735;6429
737;6430
739;6431
742;6432
745;6433
748;6434
754;6435
756;6436
759;6437
761;6438
763;6439
765;6440
767;6441
767;6442
766;6443
764;6444
762;6445
759;6446
755;6447
754;6448
752;6449
752;6450
751;6451
751;6452
751;6453
752;6454
753;6455
754;6456
755;6457
757;6458
758;6459
760;6460
761;6461
762;6462
763;6463
764;6464
764;6465
765;6466
765;6467
765;6468
765;6469
764;6470
764;6471
763;6472
761;6473
759;6474
757;6475
755;6476
753;6477
750;6478
748;6479
747;6480
746;6481
745;6482
744;6483
742;6484
739;6485
736;6486
732;6487
728;6488
723;6489
716;6490
705;6491
701;6492
698;6493
696;6494
696;6495
696;6496
699;6497
702;6498
705;6499
709;6500
713;6501
718;6502
727;6503
731;6504
734;6505
737;6506
740;6507
743;6508
745;6509
745;6510
746;6511
747;6512
748;6513
749;6514
750;6515
753;6516
754;6517
755;6518
756;6519
758;6520
759;6521
762;6522
762;6523
763;6524
764;6525
765;6526
766;6527
767;6528
767;6529
768;6530
768;6531
768;6532
768;6533
768;6534
767;6535
767;6536
767;6537
767;6538
766;6539
766;6540
766;6541
765;6542
764;6543
763;6544
762;6545
762;6546
760;6547
759;6548
758;6549
756;6550
755;6551
753;6552
749;6553
747;6554
746;6555
744;6556
743;6557
742;6558
742;6559
742;6560
743;6561
744;6562
745;6563
746;6564
748;6565
750;6566
752;6567
754;6568
755;6569
755;6570
756;6571
757;6572
758;6573
758;6574
759;6575
760;6576
760;6577
761;6578
761;6579
762;6580
762;6581
762;6582
762;6583
763;6584
764;6585
765;6586
766;6587
767;6588
767;6589
767;6590
769;6591
769;6592
769;6593
769;6594
769;6595
770;6596
770;6597
769;6598
768;6599
767;6600
764;6601
761;6602
754;6603
749;6604
744;6605
740;6606
736;6607
733;6608
728;6609
726;6610
726;6611
726;6612
726;6613
728;6614
729;6615
733;6616
735;6617
737;6618
739;6619
739;6620
738;6621
735;6622
734;6623
733;6624
733;6625
732;6626
731;6627
730;6628
728;6629
727;6630
726;6631
724;6632
724;6633
723;6634
722;6635
723;6636
723;6637
724;6638
725;6639
726;6640
729;6641
731;6642
733;6643
735;6644
737;6645
739;6646
746;6647
748;6648
751;6649
754;6650
757;6651
759;6652
763;6653
765;6654
766;6655
768;6656
769;6657
770;6658
771;6659
771;6660
771;6661
771;6662
771;6663
771;6664
770;6665
770;6666
768;6667
768;6668
767;6669
766;6670
765;6671
763;6672
763;6673
763;6674
762;6675
762;6676
761;6677
761;6678
761;6679
761;6680
761;6681
761;6682
761;6683
762;6684
762;6685
763;6686
763;6687
763;6688
762;6689
760;6690
758;6691
756;6692
752;6693
748;6694
743;6695
732;6696
728;6697
726;6698
723;6699
721;6700
719;6701
716;6702
712;6703
710;6704
707;6705
705;6706
704;6707
703;6708
704;6709
706;6710
708;6711
711;6712
713;6713
716;6714
722;6715
725;6716
728;6717
730;6718
733;6719
735;6720
737;6721
740;6722
741;6723
743;6724
744;6725
745;6726
747;6727
750;6728
751;6729
753;6730
754;6731
755;6732
757;6733
759;6734
760;6735
761;6736
762;6737
762;6738
763;6739
764;6740
764;6741
764;6742
764;6743
763;6744
763;6745
762;6746
762;6747
762;6748
761;6749
762;6750
762;6751
762;6752
763;6753
764;6754
764;6755
764;6756
764;6757
763;6758
762;6759
761;6760
760;6761
758;6762
755;6763
752;6764
746;6765
743;6766
740;6767
737;6768
735;6769
733;6770
730;6771
729;6772
729;6773
729;6774
729;6775
729;6776
728;6777
729;6778
729;6779
730;6780
732;6781
733;6782
735;6783
737;6784
739;6785
740;6786
740;6787
741;6788
743;6789
744;6790
744;6791
744;6792
744;6793
744;6794
745;6795
746;6796
747;6797
747;6798
748;6799
749;6800
750;6801
752;6802
754;6803
755;6804
757;6805
758;6806
759;6807
761;6808
762;6809
763;6810
763;6811
763;6812
762;6813
762;6814
761;6815
760;6816
759;6817
758;6818
756;6819
754;6820
749;6821
746;6822
743;6823
741;6824
739;6825
736;6826
733;6827
731;6828
729;6829
727;6830
725;6831
725;6832
724;6833
724;6834
724;6835
725;6836
726;6837
727;6838
729;6839
732;6840
734;6841
735;6842
737;6843
739;6844
741;6845
744;6846
746;6847
748;6848
749;6849
751;6850
753;6851
755;6852
755;6853
755;6854
755;6855
755;6856
755;6857
755;6858
756;6859
757;6860
758;6861
758;6862
759;6863
760;6864
760;6865
760;6866
760;6867
761;6868
761;6869
761;6870
762;6871
762;6872
762;6873
763;6874
763;6875
763;6876
762;6877
763;6878
763;6879
763;6880
763;6881
762;6882
762;6883
761;6884
761;6885
761;6886
761;6887
761;6888
760;6889
760;6890
760;6891
760;6892
759;6893
758;6894
758;6895
757;6896
756;6897
755;6898
753;6899
752;6900
751;6901
750;6902
750;6903
750;6904
750;6905
750;6906
750;6907
751;6908
752;6909
752;6910
751;6911
749;6912
748;6913
745;6914
743;6915
742;6916
741;6917
740;6918
739;6919
740;6920
741;6921
742;6922
742;6923
743;6924
744;6925
743;6926
743;6927
742;6928
742;6929
742;6930
742;6931
742;6932
741;6933
740;6934
740;6935
739;6936
736;6937
734;6938
729;6939
726;6940
725;6941
722;6942
722;6943
722;6944
723;6945
726;6946
728;6947
730;6948
733;6949
736;6950
739;6951
745;6952
748;6953
751;6954
753;6955
754;6956
756;6957
757;6958
757;6959
758;6960
759;6961
760;6962
761;6963
762;6964
763;6965
763;6966
764;6967
764;6968
764;6969
764;6970
764;6971
764;6972
764;6973
764;6974
765;6975
765;6976
765;6977
764;6978
763;6979
762;6980
761;6981
759;6982
756;6983
754;6984
753;6985
751;6986
750;6987
748;6988
746;6989
746;6990
745;6991
745;6992
746;6993
747;6994
749;6995
749;6996
750;6997
751;6998
751;6999
752;7000
753;7001
754;7002
754;7003
754;7004
753;7005
750;7006
747;7007
739;7008
735;7009
731;7010
725;7011
719;7012
713;7013
703;7014
699;7015
697;7016
695;7017
694;7018
694;7019
696;7020
697;7021
700;7022
703;7023
706;7024
711;7025
719;7026
724;7027
728;7028
733;7029
736;7030
739;7031
741;7032
742;7033
743;7034
743;7035
744;7036
745;7037
745;7038
747;7039
747;7040
748;7041
749;7042
750;7043
750;7044
751;7045
752;7046
753;7047
754;7048
755;7049
756;7050
757;7051
757;7052
757;7053
758;7054
758;7055
758;7056
758;7057
754;7058
751;7059
749;7060
746;7061
744;7062
743;7063
740;7064
739;7065
739;7066
738;7067
738;7068
738;7069
740;7070
741;7071
742;7072
743;7073
744;7074
745;7075
745;7076
745;7077
745;7078
745;7079
745;7080
744;7081
743;7082
743;7083
743;7084
743;7085
743;7086
743;7087
743;7088
744;7089
745;7090
746;7091
747;7092
749;7093
749;7094
749;7095
748;7096
747;7097
746;7098
745;7099
744;7100
743;7101
742;7102
742;7103
741;7104
741;7105
741;7106
741;7107
742;7108
744;7109
745;7110
746;7111
748;7112
749;7113
751;7114
752;7115
752;7116
752;7117
753;7118
753;7119
753;7120
754;7121
755;7122
755;7123
754;7124
754;7125
753;7126
752;7127
752;7128
752;7129
752;7130
752;7131
754;7132
754;7133
755;7134
755;7135
756;7136
756;7137
757;7138
758;7139
759;7140
760;7141
760;7142
761;7143
762;7144
762;7145
763;7146
762;7147
763;7148
763;7149
763;7150
763;7151
764;7152
764;7153
763;7154
763;7155
763;7156
759;7157
755;7158
750;7159
744;7160
737;7161
730;7162
716;7163
709;7164
703;7165
699;7166
694;7167
691;7168
685;7169
683;7170
682;7171
682;7172
682;7173
684;7174
689;7175
692;7176
695;7177
699;7178
702;7179
706;7180
709;7181
714;7182
716;7183
718;7184
720;7185
722;7186
725;7187
731;7188
734;7189
736;7190
739;7191
741;7192
743;7193
748;7194
750;7195
752;7196
754;7197
754;7198
755;7199
757;7200
757;7201
757;7202
757;7203
756;7204
757;7205
757;7206
757;7207
757;7208
756;7209
756;7210
755;7211
754;7212
752;7213
751;7214
750;7215
748;7216
747;7217
745;7218
742;7219
740;7220
738;7221
736;7222
735;7223
735;7224
735;7225
735;7226
736;7227
737;7228
738;7229
739;7230
744;7231
746;7232
748;7233
750;7234
751;7235
753;7236
755;7237
756;7238
757;7239
758;7240
758;7241
758;7242
758;7243
758;7244
758;7245
757;7246
757;7247
756;7248
755;7249
752;7250
752;7251
751;7252
751;7253
750;7254
750;7255
750;7256
751;7257
752;7258
752;7259
754;7260
755;7261
758;7262
758;7263
759;7264
760;7265
760;7266
760;7267
759;7268
758;7269
757;7270
757;7271
755;7272
755;7273
753;7274
752;7275
752;7276
751;7277
751;7278
750;7279
750;7280
750;7281
750;7282
751;7283
752;7284
753;7285
753;7286
755;7287
755;7288
756;7289
756;7290
757;7291
757;7292
758;7293
757;7294
756;7295
755;7296
753;7297
751;7298
746;7299
745;7300
742;7301
738;7302
734;7303
731;7304
728;7305
725;7306
723;7307
722;7308
722;7309
721;7310
721;7311
723;7312
725;7313
728;7314
730;7315
733;7316
735;7317
737;7318
736;7319
735;7320
735;7321
735;7322
735;7323
733;7324
730;7325
728;7326
726;7327
725;7328
724;7329
723;7330
723;7331
723;7332
724;7333
725;7334
727;7335
729;7336
733;7337
735;7338
737;7339
740;7340
743;7341
745;7342
748;7343
749;7344
751;7345
752;7346
753;7347
754;7348
757;7349
758;7350
758;7351
758;7352
757;7353
757;7354
755;7355
751;7356
750;7357
748;7358
747;7359
746;7360
745;7361
744;7362
744;7363
744;7364
744;7365
744;7366
744;7367
746;7368
746;7369
748;7370
749;7371
751;7372
752;7373
755;7374
755;7375
755;7376
754;7377
752;7378
751;7379
748;7380
747;7381
747;7382
746;7383
746;7384
745;7385
746;7386
746;7387
747;7388
748;7389
749;7390
751;7391
753;7392
754;7393
754;7394
753;7395
752;7396
749;7397
745;7398
739;7399
737;7400
735;7401
733;7402
733;7403
733;7404
734;7405
735;7406
737;7407
739;7408
741;7409
743;7410
747;7411
749;7412
751;7413
753;7414
754;7415
754;7416
755;7417
755;7418
754;7419
752;7420
750;7421
747;7422
740;7423
737;7424
733;7425
730;7426
726;7427
722;7428
719;7429
712;7430
710;7431
708;7432
707;7433
707;7434
708;7435
712;7436
714;7437
717;7438
720;7439
723;7440
727;7441
732;7442
735;7443
737;7444
739;7445
739;7446
739;7447
737;7448
736;7449
734;7450
731;7451
728;7452
725;7453
720;7454
718;7455
717;7456
716;7457
716;7458
717;7459
718;7460
723;7461
725;7462
729;7463
732;7464
735;7465
738;7466
744;7467
747;7468
749;7469
752;7470
754;7471
756;7472
759;7473
759;7474
760;7475
760;7476
761;7477
761;7478
763;7479
763;7480
764;7481
764;7482
764;7483
764;7484
764;7485
763;7486
763;7487
763;7488
763;7489
762;7490
762;7491
760;7492
758;7493
757;7494
755;7495
754;7496
752;7497
750;7498
749;7499
747;7500
746;7501
744;7502
743;7503
741;7504
740;7505
739;7506
738;7507
737;7508
736;7509
732;7510
729;7511
727;7512
725;7513
724;7514
723;7515
722;7516
720;7517
720;7518
718;7519
716;7520
715;7521
714;7522
713;7523
713;7524
715;7525
716;7526
718;7527
720;7528
723;7529
724;7530
726;7531
728;7532
729;7533
731;7534
736;7535
738;7536
739;7537
741;7538
742;7539
743;7540
744;7541
747;7542
749;7543
750;7544
752;7545
754;7546
756;7547
759;7548
761;7549
762;7550
763;7551
764;7552
765;7553
767;7554
765;7555
764;7556
762;7557
759;7558
757;7559
750;7560
747;7561
744;7562
742;7563
740;7564
739;7565
738;7566
738;7567
739;7568
740;7569
741;7570
743;7571
744;7572
747;7573
747;7574
746;7575
746;7576
744;7577
744;7578
743;7579
743;7580
743;7581
743;7582
743;7583
742;7584
741;7585
740;7586
740;7587
740;7588
740;7589
741;7590
742;7591
743;7592
744;7593
744;7594
744;7595
745;7596
746;7597
747;7598
748;7599
748;7600
749;7601
749;7602
750;7603
747;7604
743;7605
738;7606
732;7607
725;7608
719;7609
706;7610
701;7611
697;7612
695;7613
693;7614
693;7615
694;7616
695;7617
696;7618
699;7619
702;7620
706;7621
716;7622
722;7623
728;7624
733;7625
738;7626
743;7627
747;7628
753;7629
756;7630
758;7631
760;7632
762;7633
762;7634
763;7635
763;7636
764;7637
764;7638
764;7639
764;7640
761;7641
758;7642
755;7643
752;7644
748;7645
744;7646
739;7647
737;7648
736;7649
734;7650
732;7651
731;7652
731;7653
733;7654
735;7655
737;7656
740;7657
742;7658
745;7659
748;7660
748;7661
747;7662
745;7663
744;7664
742;7665
739;7666
738;7667
736;7668
735;7669
735;7670
735;7671
735;7672
735;7673
735;7674
735;7675
734;7676
733;7677
731;7678
727;7679
724;7680
721;7681
719;7682
717;7683
715;7684
714;7685
715;7686
715;7687
716;7688
717;7689
718;7690
720;7691
722;7692
724;7693
726;7694
726;7695
727;7696
729;7697
730;7698
731;7699
732;7700
734;7701
735;7702
735;7703
733;7704
731;7705
729;7706
727;7707
726;7708
726;7709
725;7710
725;7711
726;7712
727;7713
728;7714
730;7715
734;7716
736;7717
739;7718
741;7719
744;7720
747;7721
753;7722
755;7723
758;7724
761;7725
763;7726
764;7727
769;7728
770;7729
771;7730
772;7731
773;7732
772;7733
772;7734
772;7735
772;7736
772;7737
771;7738
769;7739
768;7740
765;7741
765;7742
764;7743
763;7744
763;7745
762;7746
759;7747
756;7748
753;7749
749;7750
745;7751
742;7752
737;7753
735;7754
734;7755
733;7756
733;7757
733;7758
734;7759
737;7760
739;7761
742;7762
744;7763
747;7764
750;7765
755;7766
757;7767
757;7768
758;7769
760;7770
760;7771
760;7772
760;7773
760;7774
759;7775
758;7776
756;7777
750;7778
746;7779
741;7780
736;7781
730;7782
724;7783
714;7784
709;7785
706;7786
703;7787
701;7788
700;7789
700;7790
701;7791
703;7792
705;7793
708;7794
709;7795
710;7796
710;7797
711;7798
712;7799
713;7800
714;7801
716;7802
715;7803
714;7804
713;7805
713;7806
713;7807
713;7808
716;7809
718;7810
720;7811
723;7812
726;7813
729;7814
735;7815
739;7816
742;7817
747;7818
750;7819
754;7820
761;7821
762;7822
762;7823
761;7824
760;7825
760;7826
760;7827
759;7828
759;7829
759;7830
758;7831
758;7832
759;7833
760;7834
761;7835
762;7836
763;7837
764;7838
764;7839
767;7840
768;7841
769;7842
771;7843
772;7844
773;7845
775;7846
775;7847
776;7848
776;7849
777;7850
778;7851
778;7852
777;7853
777;7854
776;7855
776;7856
775;7857
772;7858
770;7859
768;7860
767;7861
765;7862
764;7863
762;7864
757;7865
754;7866
751;7867
749;7868
746;7869
743;7870
737;7871
736;7872
734;7873
734;7874
732;7875
731;7876
727;7877
725;7878
722;7879
720;7880
717;7881
714;7882
713;7883
711;7884
712;7885
713;7886
714;7887
716;7888
718;7889
724;7890
728;7891
731;7892
733;7893
738;7894
742;7895
749;7896
753;7897
757;7898
761;7899
764;7900
767;7901
771;7902
772;7903
773;7904
773;7905
772;7906
771;7907
767;7908
765;7909
763;7910
760;7911
758;7912
757;7913
755;7914
754;7915
753;7916
753;7917
753;7918
753;7919
752;7920
753;7921
754;7922
755;7923
757;7924
759;7925
761;7926
764;7927
766;7928
768;7929
770;7930
771;7931
772;7932
774;7933
775;7934
775;7935
775;7936
773;7937
770;7938
765;7939
761;7940
758;7941
754;7942
752;7943
749;7944
745;7945
745;7946
744;7947
744;7948
744;7949
745;7950
746;7951
748;7952
748;7953
748;7954
748;7955
746;7956
742;7957
735;7958
730;7959
724;7960
718;7961
713;7962
709;7963
704;7964
703;7965
703;7966
702;7967
703;7968
704;7969
711;7970
715;7971
719;7972
724;7973
728;7974
731;7975
734;7976
735;7977
737;7978
739;7979
741;7980
742;7981
745;7982
746;7983
748;7984
749;7985
750;7986
750;7987
750;7988
751;7989
752;7990
752;7991
752;7992
753;7993
753;7994
753;7995
752;7996
751;7997
750;7998
749;7999
749;8000
748;8001
747;8002
746;8003
746;8004
745;8005
746;8006
746;8007
748;8008
749;8009
750;8010
751;8011
753;8012
755;8013
758;8014
759;8015
761;8016
763;8017
764;8018
765;8019
766;8020
766;8021
766;8022
767;8023
768;8024
768;8025
769;8026
770;8027
769;8028
768;8029
766;8030
765;8031
761;8032
758;8033
755;8034
753;8035
751;8036
748;8037
744;8038
743;8039
742;8040
741;8041
739;8042
737;8043
731;8044
728;8045
726;8046
724;8047
723;8048
722;8049
722;8050
725;8051
727;8052
729;8053
732;8054
734;8055
737;8056
743;8057
746;8058
749;8059
752;8060
755;8061
758;8062
763;8063
765;8064
768;8065
770;8066
772;8067
774;8068
776;8069
776;8070
775;8071
775;8072
773;8073
771;8074
764;8075
760;8076
757;8077
753;8078
750;8079
747;8080
744;8081
737;8082
732;8083
727;8084
723;8085
721;8086
719;8087
718;8088
718;8089
720;8090
722;8091
724;8092
728;8093
731;8094
737;8095
740;8096
744;8097
747;8098
749;8099
751;8100
752;8101
752;8102
750;8103
747;8104
744;8105
741;8106
737;8107
735;8108
733;8109
733;8110
732;8111
731;8112
731;8113
732;8114
733;8115
736;8116
738;8117
741;8118
743;8119
749;8120
751;8121
754;8122
757;8123
759;8124
761;8125
765;8126
766;8127
767;8128
769;8129
770;8130
770;8131
771;8132
771;8133
771;8134
771;8135
772;8136
771;8137
767;8138
765;8139
761;8140
757;8141
752;8142
748;8143
739;8144
734;8145
729;8146
724;8147
720;8148
715;8149
709;8150
707;8151
706;8152
707;8153
708;8154
710;8155
715;8156
718;8157
722;8158
725;8159
729;8160
732;8161
737;8162
739;8163
741;8164
741;8165
741;8166
741;8167
741;8168
741;8169
741;8170
741;8171
741;8172
741;8173
742;8174
743;8175
744;8176
746;8177
747;8178
750;8179
752;8180
756;8181
758;8182
760;8183
762;8184
763;8185
764;8186
767;8187
768;8188
769;8189
769;8190
768;8191
768;8192
768;8193
767;8194
767;8195
767;8196
767;8197
767;8198
768;8199
769;8200
769;8201
770;8202
770;8203
769;8204
769;8205
768;8206
768;8207
768;8208
768;8209
769;8210
770;8211
771;8212
771;8213
771;8214
772;8215
772;8216
771;8217
767;8218
763;8219
760;8220
757;8221
754;8222
751;8223
745;8224
743;8225
741;8226
740;8227
739;8228
739;8229
739;8230
740;8231
740;8232
740;8233
741;8234
740;8235
738;8236
734;8237
732;8238
730;8239
728;8240
726;8241
725;8242
721;8243
720;8244
719;8245
719;8246
718;8247
714;8248
706;8249
702;8250
699;8251
695;8252
693;8253
691;8254
688;8255
688;8256
688;8257
689;8258
691;8259
694;8260
697;8261
706;8262
711;8263
716;8264
721;8265
726;8266
731;8267
739;8268
744;8269
748;8270
752;8271
755;8272
758;8273
762;8274
764;8275
766;8276
767;8277
768;8278
768;8279
770;8280
770;8281
770;8282
770;8283
770;8284
770;8285
768;8286
768;8287
767;8288
764;8289
762;8290
760;8291
758;8292
756;8293
754;8294
752;8295
750;8296
748;8297
747;8298
745;8299
744;8300
745;8301
745;8302
746;8303
747;8304
750;8305
751;8306
753;8307
755;8308
757;8309
758;8310
761;8311
762;8312
762;8313
763;8314
764;8315
764;8316
764;8317
763;8318
762;8319
761;8320
760;8321
759;8322
759;8323
757;8324
756;8325
755;8326
753;8327
749;8328
746;8329
741;8330
739;8331
738;8332
736;8333
736;8334
736;8335
737;8336
738;8337
738;8338
738;8339
739;8340
739;8341
741;8342
742;8343
743;8344
745;8345
746;8346
747;8347
748;8348
748;8349
747;8350
746;8351
745;8352
744;8353
741;8354
739;8355
737;8356
735;8357
732;8358
728;8359
725;8360
719;8361
716;8362
714;8363
712;8364
712;8365
712;8366
714;8367
716;8368
719;8369
721;8370
724;8371
728;8372
735;8373
738;8374
740;8375
740;8376
739;8377
737;8378
732;8379
730;8380
729;8381
728;8382
727;8383
726;8384
726;8385
726;8386
726;8387
726;8388
727;8389
729;8390
731;8391
737;8392
740;8393
742;8394
743;8395
744;8396
745;8397
746;8398
748;8399
748;8400
750;8401
750;8402
750;8403
751;8404
751;8405
751;8406
751;8407
752;8408
752;8409
752;8410
751;8411
752;8412
752;8413
753;8414
753;8415
755;8416
757;8417
758;8418
759;8419
760;8420
761;8421
763;8422
765;8423
765;8424
766;8425
766;8426
766;8427
766;8428
767;8429
766;8430
766;8431
767;8432
766;8433
765;8434
765;8435
763;8436
762;8437
760;8438
759;8439
758;8440
758;8441
757;8442
757;8443
758;8444
758;8445
759;8446
760;8447
762;8448
762;8449
763;8450
762;8451
761;8452
760;8453
754;8454
750;8455
745;8456
740;8457
736;8458
731;8459
727;8460
727;8461
727;8462
727;8463
729;8464
731;8465
735;8466
737;8467
739;8468
741;8469
744;8470
747;8471
749;8472
751;8473
752;8474
753;8475
754;8476
754;8477
755;8478
756;8479
756;8480
756;8481
756;8482
756;8483
756;8484
757;8485
758;8486
758;8487
758;8488
759;8489
760;8490
759;8491
759;8492
758;8493
757;8494
756;8495
754;8496
751;8497
750;8498
749;8499
749;8500
748;8501
748;8502
748;8503
748;8504
748;8505
749;8506
749;8507
749;8508
747;8509
744;8510
742;8511
739;8512
736;8513
733;8514
731;8515
727;8516
726;8517
725;8518
725;8519
726;8520
727;8521
729;8522
731;8523
733;8524
736;8525
739;8526
742;8527
749;8528
752;8529
755;8530
758;8531
761;8532
763;8533
766;8534
767;8535
768;8536
769;8537
769;8538
769;8539
768;8540
767;8541
767;8542
766;8543
765;8544
765;8545
764;8546
762;8547
759;8548
755;8549
752;8550
749;8551
745;8552
741;8553
739;8554
738;8555
738;8556
738;8557
738;8558
738;8559
738;8560
739;8561
740;8562
742;8563
744;8564
748;8565
749;8566
749;8567
748;8568
746;8569
745;8570
745;8571
745;8572
745;8573
746;8574
746;8575
747;8576
747;8577
746;8578
744;8579
742;8580
739;8581
737;8582
735;8583
729;8584
727;8585
725;8586
724;8587
723;8588
721;8589
717;8590
716;8591
716;8592
716;8593
717;8594
719;8595
722;8596
724;8597
726;8598
729;8599
731;8600
734;8601
735;8602
737;8603
738;8604
738;8605
739;8606
739;8607
739;8608
738;8609
736;8610
735;8611
733;8612
732;8613
732;8614
732;8615
733;8616
734;8617
736;8618
738;8619
740;8620
743;8621
745;8622
747;8623
749;8624
751;8625
753;8626
756;8627
757;8628
759;8629
760;8630
762;8631
763;8632
764;8633
767;8634
768;8635
769;8636
770;8637
770;8638
769;8639
767;8640
766;8641
766;8642
765;8643
765;8644
764;8645
763;8646
763;8647
763;8648
763;8649
764;8650
764;8651
765;8652
765;8653
765;8654
765;8655
766;8656
766;8657
766;8658
766;8659
765;8660
764;8661
762;8662
760;8663
757;8664
754;8665
752;8666
750;8667
748;8668
746;8669
745;8670
743;8671
742;8672
739;8673
736;8674
733;8675
731;8676
727;8677
727;8678
726;8679
727;8680
728;8681
729;8682
731;8683
733;8684
734;8685
734;8686
734;8687
733;8688
730;8689
725;8690
723;8691
720;8692
719;8693
718;8694
717;8695
716;8696
717;8697
717;8698
719;8699
720;8700
723;8701
729;8702
732;8703
736;8704
740;8705
743;8706
746;8707
748;8708
751;8709
752;8710
753;8711
754;8712
756;8713
758;8714
760;8715
760;8716
761;8717
761;8718
762;8719
762;8720
763;8721
764;8722
764;8723
764;8724
765;8725
766;8726
767;8727
768;8728
769;8729
770;8730
772;8731
773;8732
775;8733
777;8734
777;8735
779;8736
779;8737
780;8738
780;8739
779;8740
778;8741
776;8742
774;8743
771;8744
769;8745
762;8746
758;8747
753;8748
749;8749
745;8750
741;8751
735;8752
733;8753
733;8754
732;8755
731;8756
730;8757
728;8758
728;8759
728;8760
727;8761
726;8762
725;8763
723;8764
722;8765
721;8766
721;8767
721;8768
722;8769
724;8770
726;8771
727;8772
729;8773
731;8774
733;8775
735;8776
740;8777
742;8778
745;8779
748;8780
749;8781
752;8782
756;8783
758;8784
759;8785
760;8786
761;8787
761;8788
760;8789
758;8790
755;8791
752;8792
750;8793
748;8794
744;8795
742;8796
741;8797
740;8798
739;8799
739;8800
739;8801
740;8802
741;8803
743;8804
745;8805
747;8806
749;8807
755;8808
757;8809
760;8810
762;8811
764;8812
766;8813
766;8814
765;8815
763;8816
760;8817
757;8818
754;8819
749;8820
746;8821
745;8822
743;8823
742;8824
741;8825
741;8826
741;8827
742;8828
743;8829
745;8830
746;8831
748;8832
752;8833
754;8834
756;8835
757;8836
758;8837
759;8838
761;8839
762;8840
763;8841
764;8842
765;8843
766;8844
769;8845
769;8846
769;8847
769;8848
768;8849
767;8850
765;8851
764;8852
763;8853
760;8854
757;8855
751;8856
742;8857
719;8858
708;8859
698;8860
688;8861
680;8862
674;8863
666;8864
664;8865
663;8866
663;8867
665;8868
668;8869
678;8870
685;8871
692;8872
699;8873
707;8874
714;8875
725;8876
730;8877
734;8878
738;8879
742;8880
745;8881
748;8882
752;8883
753;8884
755;8885
756;8886
757;8887
759;8888
762;8889
763;8890
765;8891
766;8892
767;8893
768;8894
770;8895
771;8896
772;8897
773;8898
773;8899
773;8900
773;8901
773;8902
773;8903
774;8904
774;8905
775;8906
775;8907
776;8908
776;8909
777;8910
778;8911
778;8912
779;8913
779;8914
780;8915
780;8916
780;8917
780;8918
780;8919
779;8920
779;8921
779;8922
778;8923
778;8924
778;8925
777;8926
776;8927
773;8928
771;8929
769;8930
768;8931
764;8932
762;8933
759;8934
757;8935
755;8936
753;8937
747;8938
744;8939
740;8940
736;8941
732;8942
729;8943
724;8944
722;8945
721;8946
720;8947
719;8948
718;8949
716;8950
715;8951
715;8952
715;8953
715;8954
716;8955
718;8956
721;8957
723;8958
725;8959
728;8960
731;8961
734;8962
741;8963
745;8964
748;8965
751;8966
754;8967
757;8968
762;8969
764;8970
766;8971
767;8972
768;8973
769;8974
770;8975
770;8976
771;8977
772;8978
773;8979
773;8980
774;8981
775;8982
774;8983
774;8984
773;8985
773;8986
772;8987
771;8988
771;8989
771;8990
770;8991
769;8992
768;8993
765;8994
764;8995
763;8996
761;8997
760;8998
759;8999
755;9000
753;9001
751;9002
749;9003
746;9004
744;9005
742;9006
739;9007
739;9008
738;9009
738;9010
738;9011
739;9012
739;9013
740;9014
741;9015
742;9016
743;9017
745;9018
747;9019
747;9020
747;9021
746;9022
746;9023
745;9024
743;9025
743;9026
741;9027
740;9028
737;9029
734;9030
724;9031
718;9032
711;9033
704;9034
699;9035
695;9036
692;9037
688;9038
688;9039
688;9040
689;9041
691;9042
694;9043
702;9044
708;9045
714;9046
720;9047
727;9048
732;9049
742;9050
746;9051
748;9052
750;9053
752;9054
755;9055
759;9056
761;9057
762;9058
763;9059
764;9060
765;9061
766;9062
767;9063
768;9064
768;9065
769;9066
770;9067
770;9068
770;9069
771;9070
770;9071
770;9072
770;9073
770;9074
771;9075
771;9076
771;9077
771;9078
771;9079
771;9080
772;9081
772;9082
773;9083
774;9084
774;9085
775;9086
776;9087
777;9088
777;9089
778;9090
779;9091
779;9092
780;9093
781;9094
780;9095
780;9096
780;9097
780;9098
780;9099
779;9100
779;9101
779;9102
778;9103
777;9104
776;9105
771;9106
769;9107
767;9108
765;9109
763;9110
760;9111
756;9112
755;9113
754;9114
753;9115
752;9116
751;9117
748;9118
747;9119
745;9120
743;9121
741;9122
739;9123
737;9124
734;9125
732;9126
731;9127
731;9128
730;9129
731;9130
731;9131
732;9132
733;9133
735;9134
736;9135
738;9136
742;9137
744;9138
746;9139
748;9140
749;9141
751;9142
752;9143
752;9144
752;9145
750;9146
748;9147
745;9148
739;9149
737;9150
734;9151
731;9152
729;9153
726;9154
725;9155
726;9156
726;9157
728;9158
729;9159
730;9160
732;9161
736;9162
739;9163
742;9164
745;9165
749;9166
752;9167
757;9168
759;9169
761;9170
762;9171
763;9172
763;9173
763;9174
762;9175
762;9176
762;9177
761;9178
759;9179
757;9180
757;9181
756;9182
755;9183
755;9184
755;9185
755;9186
756;9187
757;9188
757;9189
758;9190
758;9191
759;9192
761;9193
762;9194
763;9195
765;9196
766;9197
767;9198
768;9199
767;9200
767;9201
766;9202
765;9203
764;9204
761;9205
760;9206
759;9207
758;9208
756;9209
756;9210
753;9211
752;9212
751;9213
750;9214
750;9215
749;9216
751;9217
752;9218
753;9219
754;9220
755;9221
757;9222
758;9223
759;9224
759;9225
760;9226
761;9227
762;9228
763;9229
765;9230
766;9231
766;9232
767;9233
767;9234
768;9235
768;9236
769;9237
769;9238
768;9239
767;9240
765;9241
760;9242
758;9243
755;9244
750;9245
745;9246
739;9247
733;9248
721;9249
716;9250
712;9251
708;9252
706;9253
704;9254
702;9255
702;9256
702;9257
702;9258
704;9259
706;9260
709;9261
711;9262
713;9263
715;9264
717;9265
718;9266
723;9267
726;9268
728;9269
731;9270
734;9271
738;9272
741;9273
748;9274
751;9275
754;9276
757;9277
760;9278
762;9279
767;9280
769;9281
771;9282
772;9283
773;9284
774;9285
775;9286
775;9287
775;9288
775;9289
776;9290
776;9291
775;9292
775;9293
775;9294
774;9295
774;9296
773;9297
772;9298
772;9299
771;9300
771;9301
770;9302
770;9303
769;9304
767;9305
765;9306
764;9307
762;9308
760;9309
759;9310
755;9311
754;9312
753;9313
751;9314
751;9315
749;9316
748;9317
748;9318
747;9319
747;9320
746;9321
746;9322
746;9323
746;9324
747;9325
747;9326
748;9327
749;9328
750;9329
751;9330
751;9331
752;9332
753;9333
754;9334
755;9335
757;9336
758;9337
760;9338
760;9339
762;9340
763;9341
764;9342
765;9343
765;9344
765;9345
765;9346
765;9347
765;9348
764;9349
764;9350
763;9351
763;9352
763;9353
760;9354
759;9355
758;9356
757;9357
756;9358
756;9359
755;9360
755;9361
756;9362
756;9363
757;9364
758;9365
759;9366
760;9367
760;9368
760;9369
761;9370
761;9371
760;9372
760;9373
759;9374
759;9375
758;9376
757;9377
757;9378
755;9379
755;9380
754;9381
753;9382
752;9383
751;9384
748;9385
747;9386
745;9387
744;9388
742;9389
741;9390
741;9391
740;9392
740;9393
740;9394
741;9395
741;9396
741;9397
740;9398
739;9399
737;9400
734;9401
731;9402
728;9403
726;9404
725;9405
725;9406
726;9407
726;9408
728;9409
731;9410
733;9411
735;9412
738;9413
740;9414
742;9415
748;9416
750;9417
752;9418
754;9419
757;9420
759;9421
762;9422
765;9423
766;9424
767;9425
767;9426
768;9427
768;9428
769;9429
769;9430
770;9431
770;9432
770;9433
770;9434
769;9435
768;9436
768;9437
767;9438
767;9439
767;9440
766;9441
764;9442
763;9443
761;9444
758;9445
755;9446
751;9447
743;9448
739;9449
736;9450
733;9451
730;9452
728;9453
726;9454
725;9455
726;9456
726;9457
727;9458
729;9459
733;9460
736;9461
739;9462
742;9463
745;9464
748;9465
753;9466
754;9467
755;9468
756;9469
756;9470
756;9471
752;9472
750;9473
748;9474
745;9475
742;9476
739;9477
737;9478
731;9479
729;9480
727;9481
726;9482
725;9483
724;9484
722;9485
720;9486
719;9487
716;9488
713;9489
710;9490
706;9491
705;9492
705;9493
706;9494
707;9495
708;9496
712;9497
714;9498
717;9499
720;9500
724;9501
728;9502
732;9503
740;9504
744;9505
748;9506
751;9507
753;9508
755;9509
758;9510
760;9511
762;9512
764;9513
765;9514
766;9515
768;9516
768;9517
769;9518
770;9519
770;9520
771;9521
772;9522
772;9523
772;9524
772;9525
772;9526
772;9527
772;9528
771;9529
770;9530
768;9531
764;9532
761;9533
755;9534
752;9535
750;9536
749;9537
747;9538
746;9539
746;9540
746;9541
747;9542
748;9543
749;9544
751;9545
752;9546
756;9547
758;9548
759;9549
760;9550
760;9551
758;9552
755;9553
753;9554
750;9555
748;9556
746;9557
745;9558
742;9559
741;9560
741;9561
741;9562
741;9563
743;9564
745;9565
747;9566
749;9567
752;9568
754;9569
756;9570
759;9571
761;9572
761;9573
762;9574
761;9575
761;9576
760;9577
759;9578
758;9579
756;9580
755;9581
753;9582
752;9583
749;9584
747;9585
745;9586
744;9587
743;9588
742;9589
741;9590
741;9591
740;9592
740;9593
740;9594
740;9595
739;9596
738;9597
737;9598
737;9599
736;9600
736;9601
736;9602
736;9603
736;9604
736;9605
737;9606
738;9607
739;9608
740;9609
741;9610
741;9611
742;9612
743;9613
744;9614
746;9615
747;9616
748;9617
749;9618
748;9619
746;9620
742;9621
739;9622
737;9623
736;9624
734;9625
734;9626
733;9627
732;9628
733;9629
733;9630
734;9631
734;9632
735;9633
737;9634
739;9635
741;9636
743;9637
744;9638
746;9639
748;9640
749;9641
749;9642
749;9643
749;9644
747;9645
745;9646
744;9647
743;9648
742;9649
742;9650
743;9651
742;9652
742;9653
742;9654
743;9655
743;9656
744;9657
744;9658
746;9659
747;9660
748;9661
748;9662
749;9663
750;9664
752;9665
753;9666
755;9667
755;9668
756;9669
756;9670
754;9671
754;9672
753;9673
752;9674
752;9675
752;9676
753;9677
753;9678
752;9679
752;9680
751;9681
750;9682
749;9683
748;9684
747;9685
746;9686
745;9687
745;9688
744;9689
744;9690
744;9691
743;9692
743;9693
743;9694
744;9695
746;9696
748;9697
749;9698
751;9699
752;9700
753;9701
755;9702
756;9703
757;9704
759;9705
760;9706
760;9707
762;9708
762;9709
762;9710
762;9711
762;9712
761;9713
759;9714
757;9715
756;9716
755;9717
753;9718
752;9719
750;9720
744;9721
740;9722
736;9723
732;9724
729;9725
726;9726
722;9727
720;9728
719;9729
719;9730
719;9731
720;9732
722;9733
725;9734
727;9735
730;9736
732;9737
734;9738
738;9739
741;9740
743;9741
745;9742
748;9743
749;9744
751;9745
752;9746
753;9747
753;9748
753;9749
753;9750
752;9751
749;9752
747;9753
745;9754
743;9755
741;9756
739;9757
735;9758
732;9759
730;9760
729;9761
727;9762
726;9763
726;9764
726;9765
725;9766
725;9767
725;9768
725;9769
725;9770
725;9771
726;9772
726;9773
727;9774
728;9775
729;9776
730;9777
731;9778
733;9779
735;9780
736;9781
738;9782
742;9783
743;9784
744;9785
745;9786
746;9787
748;9788
749;9789
750;9790
750;9791
751;9792
751;9793
750;9794
741;9795
736;9796
731;9797
727;9798
724;9799
721;9800
716;9801
714;9802
712;9803
711;9804
709;9805
706;9806
703;9807
695;9808
692;9809
690;9810
690;9811
690;9812
691;9813
694;9814
696;9815
698;9816
701;9817
704;9818
707;9819
711;9820
714;9821
718;9822
720;9823
723;9824
725;9825
729;9826
731;9827
733;9828
735;9829
737;9830
738;9831
740;9832
743;9833
744;9834
745;9835
747;9836
748;9837
749;9838
752;9839
752;9840
753;9841
754;9842
754;9843
754;9844
755;9845
755;9846
755;9847
754;9848
754;9849
755;9850
755;9851
756;9852
756;9853
757;9854
758;9855
759;9856
761;9857
762;9858
763;9859
764;9860
765;9861
767;9862
767;9863
768;9864
769;9865
769;9866
769;9867
770;9868
770;9869
770;9870
771;9871
771;9872
770;9873
768;9874
766;9875
760;9876
756;9877
752;9878
747;9879
742;9880
738;9881
730;9882
726;9883
720;9884
715;9885
710;9886
704;9887
698;9888
696;9889
695;9890
695;9891
696;9892
698;9893
702;9894
710;9895
715;9896
719;9897
725;9898
730;9899
735;9900
744;9901
747;9902
749;9903
751;9904
752;9905
753;9906
752;9907
751;9908
750;9909
749;9910
748;9911
747;9912
746;9913
747;9914
747;9915
747;9916
748;9917
748;9918
749;9919
751;9920
751;9921
752;9922
753;9923
753;9924
751;9925
746;9926
743;9927
741;9928
739;9929
738;9930
737;9931
735;9932
734;9933
733;9934
733;9935
732;9936
733;9937
735;9938
737;9939
739;9940
742;9941
744;9942
747;9943
750;9944
752;9945
754;9946
756;9947
757;9948
757;9949
757;9950
757;9951
757;9952
757;9953
756;9954
755;9955
753;9956
752;9957
750;9958
748;9959
745;9960
743;9961
741;9962
739;9963
738;9964
737;9965
737;9966
736;9967
736;9968
734;9969
732;9970
732;9971
731;9972
730;9973
730;9974
730;9975
730;9976
731;9977
732;9978
734;9979
736;9980
741;9981
743;9982
744;9983
745;9984
745;9985
745;9986
741;9987
739;9988
738;9989
736;9990
735;9991
734;9992
732;9993
732;9994
731;9995
730;9996
729;9997
727;9998
724;9999
719;10000
717;10001
716;10002
716;10003
716;10004
717;10005
719;10006
721;10007
723;10008
725;10009
728;10010
731;10011
737;10012
741;10013
745;10014
749;10015
752;10016
754;10017
757;10018
762;10019
765;10020
768;10021
770;10022
772;10023
773;10024
774;10025
774;10026
774;10027
772;10028
771;10029
769;10030
765;10031
764;10032
762;10033
761;10034
759;10035
757;10036
756;10037
756;10038
756;10039
757;10040
757;10041
758;10042
758;10043
758;10044
758;10045
757;10046
756;10047
755;10048
752;10049
748;10050
743;10051
738;10052
733;10053
729;10054
725;10055
723;10056
722;10057
721;10058
720;10059
720;10060
720;10061
722;10062
723;10063
725;10064
727;10065
730;10066
733;10067
739;10068
741;10069
744;10070
746;10071
748;10072
750;10073
753;10074
754;10075
754;10076
753;10077
753;10078
752;10079
749;10080
748;10081
746;10082
744;10083
743;10084
741;10085
740;10086
738;10087
737;10088
736;10089
735;10090
735;10091
737;10092
738;10093
740;10094
742;10095
743;10096
745;10097
746;10098
746;10099
745;10100
743;10101
739;10102
736;10103
731;10104
728;10105
726;10106
725;10107
723;10108
721;10109
720;10110
717;10111
717;10112
718;10113
719;10114
720;10115
723;10116
730;10117
735;10118
740;10119
744;10120
748;10121
751;10122
757;10123
759;10124
761;10125
762;10126
763;10127
764;10128
765;10129
764;10130
762;10131
761;10132
759;10133
758;10134
757;10135
757;10136
757;10137
758;10138
758;10139
759;10140
760;10141
763;10142
764;10143
766;10144
767;10145
767;10146
767;10147
763;10148
760;10149
756;10150
753;10151
749;10152
746;10153
742;10154
740;10155
738;10156
736;10157
735;10158
734;10159
730;10160
727;10161
726;10162
725;10163
724;10164
724;10165
726;10166
727;10167
728;10168
728;10169
729;10170
730;10171
731;10172
732;10173
733;10174
735;10175
736;10176
737;10177
738;10178
739;10179
740;10180
741;10181
742;10182
744;10183
746;10184
751;10185
753;10186
755;10187
757;10188
759;10189
761;10190
761;10191
760;10192
759;10193
757;10194
755;10195
753;10196
747;10197
745;10198
742;10199
740;10200
738;10201
737;10202
736;10203
736;10204
736;10205
737;10206
739;10207
739;10208
739;10209
739;10210
738;10211
738;10212
737;10213
737;10214
737;10215
737;10216
738;10217
740;10218
742;10219
743;10220
745;10221
749;10222
751;10223
754;10224
757;10225
759;10226
763;10227
765;10228
771;10229
774;10230
777;10231
779;10232
780;10233
782;10234
785;10235
785;10236
786;10237
787;10238
786;10239
786;10240
782;10241
779;10242
776;10243
772;10244
768;10245
764;10246
755;10247
751;10248
747;10249
742;10250
739;10251
736;10252
731;10253
730;10254
729;10255
730;10256
731;10257
731;10258
732;10259
735;10260
736;10261
738;10262
739;10263
741;10264
742;10265
745;10266
746;10267
746;10268
748;10269
749;10270
750;10271
752;10272
753;10273
755;10274
756;10275
757;10276
758;10277
760;10278
761;10279
761;10280
762;10281
763;10282
763;10283
761;10284
760;10285
759;10286
757;10287
757;10288
756;10289
756;10290
752;10291
749;10292
746;10293
743;10294
740;10295
737;10296
731;10297
728;10298
724;10299
721;10300
718;10301
716;10302
713;10303
714;10304
715;10305
716;10306
718;10307
720;10308
724;10309
726;10310
728;10311
730;10312
733;10313
735;10314
738;10315
744;10316
746;10317
749;10318
752;10319
754;10320
757;10321
761;10322
761;10323
761;10324
761;10325
761;10326
761;10327
763;10328
764;10329
764;10330
763;10331
763;10332
763;10333
764;10334
763;10335
762;10336
761;10337
760;10338
759;10339
758;10340
757;10341
755;10342
754;10343
752;10344
751;10345
748;10346
746;10347
744;10348
744;10349
743;10350
743;10351
743;10352
744;10353
746;10354
749;10355
751;10356
753;10357
756;10358
761;10359
764;10360
766;10361
768;10362
770;10363
770;10364
770;10365
769;10366
768;10367
767;10368
765;10369
763;10370
757;10371
754;10372
751;10373
746;10374
742;10375
739;10376
733;10377
731;10378
730;10379
729;10380
729;10381
729;10382
729;10383
731;10384
731;10385
732;10386
733;10387
733;10388
732;10389
732;10390
732;10391
734;10392
735;10393
738;10394
740;10395
745;10396
747;10397
749;10398
751;10399
753;10400
755;10401
758;10402
759;10403
760;10404
760;10405
758;10406
754;10407
748;10408
746;10409
744;10410
742;10411
740;10412
739;10413
739;10414
739;10415
740;10416
742;10417
743;10418
745;10419
747;10420
751;10421
753;10422
755;10423
757;10424
759;10425
761;10426
766;10427
767;10428
769;10429
769;10430
770;10431
770;10432
771;10433
771;10434
771;10435
770;10436
768;10437
767;10438
764;10439
760;10440
758;10441
756;10442
754;10443
753;10444
751;10445
748;10446
747;10447
746;10448
745;10449
744;10450
744;10451
746;10452
747;10453
749;10454
751;10455
754;10456
757;10457
763;10458
766;10459
768;10460
769;10461
770;10462
771;10463
772;10464
773;10465
773;10466
773;10467
772;10468
772;10469
772;10470
771;10471
771;10472
771;10473
772;10474
773;10475
774;10476
776;10477
776;10478
775;10479
774;10480
772;10481
768;10482
756;10483
748;10484
741;10485
735;10486
730;10487
725;10488
719;10489
716;10490
714;10491
713;10492
711;10493
711;10494
712;10495
715;10496
717;10497
721;10498
724;10499
728;10500
731;10501
738;10502
741;10503
744;10504
748;10505
751;10506
753;10507
755;10508
755;10509
754;10510
752;10511
751;10512
749;10513
747;10514
746;10515
745;10516
745;10517
744;10518
744;10519
744;10520
745;10521
745;10522
746;10523
746;10524
747;10525
747;10526
745;10527
744;10528
742;10529
741;10530
741;10531
741;10532
740;10533
741;10534
741;10535
743;10536
744;10537
746;10538
750;10539
752;10540
754;10541
757;10542
759;10543
762;10544
767;10545
769;10546
772;10547
773;10548
774;10549
776;10550
778;10551
779;10552
781;10553
781;10554
782;10555
782;10556
781;10557
780;10558
779;10559
779;10560
776;10561
774;10562
772;10563
768;10564
766;10565
764;10566
762;10567
760;10568
758;10569
757;10570
757;10571
756;10572
756;10573
755;10574
756;10575
757;10576
756;10577
754;10578
752;10579
748;10580
743;10581
736;10582
733;10583
732;10584
730;10585
728;10586
726;10587
726;10588
725;10589
725;10590
725;10591
727;10592
730;10593
732;10594
738;10595
739;10596
740;10597
740;10598
740;10599
739;10600
736;10601
733;10602
728;10603
722;10604
716;10605
711;10606
702;10607
699;10608
698;10609
697;10610
698;10611
699;10612
705;10613
709;10614
714;10615
719;10616
724;10617
729;10618
734;10619
744;10620
747;10621
752;10622
756;10623
761;10624
765;10625
772;10626
774;10627
775;10628
776;10629
777;10630
779;10631
780;10632
781;10633
781;10634
782;10635
782;10636
782;10637
781;10638
779;10639
777;10640
774;10641
772;10642
769;10643
766;10644
758;10645
755;10646
753;10647
751;10648
749;10649
748;10650
748;10651
748;10652
750;10653
751;10654
753;10655
756;10656
761;10657
764;10658
766;10659
768;10660
769;10661
770;10662
773;10663
773;10664
774;10665
776;10666
776;10667
777;10668
778;10669
778;10670
778;10671
775;10672
772;10673
768;10674
759;10675
754;10676
746;10677
738;10678
731;10679
725;10680
716;10681
713;10682
710;10683
708;10684
707;10685
707;10686
708;10687
712;10688
715;10689
718;10690
721;10691
725;10692
730;10693
741;10694
746;10695
749;10696
752;10697
756;10698
759;10699
762;10700
764;10701
765;10702
766;10703
766;10704
766;10705
766;10706
766;10707
766;10708
765;10709
764;10710
762;10711
758;10712
756;10713
755;10714
754;10715
753;10716
752;10717
753;10718
754;10719
755;10720
757;10721
759;10722
761;10723
763;10724
767;10725
768;10726
769;10727
771;10728
772;10729
773;10730
774;10731
774;10732
772;10733
770;10734
767;10735
763;10736
754;10737
750;10738
746;10739
742;10740
738;10741
736;10742
732;10743
732;10744
732;10745
731;10746
732;10747
733;10748
735;10749
741;10750
744;10751
747;10752
751;10753
754;10754
758;10755
766;10756
769;10757
771;10758
772;10759
773;10760
772;10761
772;10762
771;10763
771;10764
769;10765
769;10766
768;10767
767;10768
766;10769
766;10770
765;10771
762;10772
756;10773
747;10774
742;10775
738;10776
736;10777
734;10778
732;10779
730;10780
730;10781
727;10782
726;10783
724;10784
723;10785
722;10786
724;10787
726;10788
727;10789
729;10790
731;10791
734;10792
740;10793
743;10794
746;10795
749;10796
753;10797
757;10798
763;10799
766;10800
767;10801
769;10802
770;10803
771;10804
773;10805
773;10806
774;10807
775;10808
776;10809
776;10810
776;10811
776;10812
776;10813
774;10814
772;10815
769;10816
764;10817
754;10818
748;10819
742;10820
737;10821
733;10822
729;10823
723;10824
720;10825
719;10826
720;10827
720;10828
721;10829
726;10830
730;10831
734;10832
738;10833
743;10834
748;10835
752;10836
759;10837
762;10838
765;10839
767;10840
769;10841
771;10842
774;10843
775;10844
776;10845
777;10846
777;10847
778;10848
779;10849
779;10850
778;10851
778;10852
777;10853
777;10854
774;10855
771;10856
766;10857
760;10858
755;10859
750;10860
746;10861
738;10862
735;10863
733;10864
732;10865
732;10866
732;10867
734;10868
736;10869
738;10870
741;10871
744;10872
748;10873
754;10874
757;10875
760;10876
762;10877
764;10878
766;10879
767;10880
766;10881
766;10882
764;10883
761;10884
758;10885
751;10886
747;10887
743;10888
740;10889
738;10890
736;10891
735;10892
735;10893
735;10894
735;10895
735;10896
734;10897
735;10898
736;10899
738;10900
739;10901
741;10902
742;10903
744;10904
743;10905
742;10906
741;10907
741;10908
741;10909
741;10910
738;10911
736;10912
735;10913
735;10914
734;10915
733;10916
733;10917
733;10918
734;10919
735;10920
736;10921
738;10922
742;10923
745;10924
747;10925
750;10926
753;10927
755;10928
757;10929
761;10930
764;10931
766;10932
768;10933
769;10934
770;10935
768;10936
767;10937
765;10938
764;10939
763;10940
761;10941
759;10942
758;10943
757;10944
757;10945
756;10946
756;10947
755;10948
755;10949
755;10950
755;10951
755;10952
755;10953
757;10954
758;10955
759;10956
759;10957
757;10958
755;10959
753;10960
750;10961
750;10962
749;10963
748;10964
747;10965
747;10966
746;10967
744;10968
741;10969
738;10970
736;10971
734;10972
730;10973
729;10974
728;10975
727;10976
726;10977
726;10978
727;10979
728;10980
728;10981
731;10982
733;10983
735;10984
736;10985
737;10986
737;10987
737;10988
737;10989
738;10990
739;10991
742;10992
742;10993
744;10994
745;10995
747;10996
749;10997
753;10998
755;10999
756;11000
757;11001
759;11002
760;11003
762;11004
764;11005
765;11006
766;11007
765;11008
764;11009
762;11010
761;11011
759;11012
756;11013
754;11014
752;11015
750;11016
748;11017
748;11018
748;11019
750;11020
752;11021
754;11022
759;11023
762;11024
764;11025
767;11026
770;11027
772;11028
778;11029
781;11030
784;11031
786;11032
788;11033
790;11034
791;11035
791;11036
790;11037
789;11038
787;11039
786;11040
782;11041
780;11042
778;11043
775;11044
771;11045
768;11046
761;11047
758;11048
755;11049
751;11050
748;11051
744;11052
742;11053
736;11054
735;11055
734;11056
733;11057
733;11058
732;11059
730;11060
729;11061
730;11062
731;11063
733;11064
735;11065
740;11066
741;11067
742;11068
743;11069
745;11070
746;11071
749;11072
751;11073
753;11074
753;11075
751;11076
747;11077
737;11078
733;11079
728;11080
725;11081
723;11082
722;11083
722;11084
723;11085
724;11086
727;11087
730;11088
734;11089
737;11090
745;11091
748;11092
752;11093
754;11094
755;11095
755;11096
757;11097
756;11098
757;11099
757;11100
757;11101
757;11102
758;11103
757;11104
757;11105
756;11106
756;11107
755;11108
755;11109
756;11110
756;11111
756;11112
757;11113
757;11114
755;11115
755;11116
755;11117
754;11118
754;11119
752;11120
751;11121
746;11122
744;11123
743;11124
742;11125
742;11126
743;11127
745;11128
746;11129
748;11130
749;11131
751;11132
752;11133
755;11134
757;11135
758;11136
760;11137
762;11138
764;11139
766;11140
766;11141
765;11142
764;11143
760;11144
756;11145
751;11146
744;11147
741;11148
737;11149
735;11150
733;11151
732;11152
732;11153
732;11154
732;11155
733;11156
734;11157
735;11158
736;11159
737;11160
739;11161
741;11162
743;11163
745;11164
747;11165
747;11166
745;11167
743;11168
740;11169
738;11170
736;11171
736;11172
736;11173
737;11174
738;11175
739;11176
741;11177
746;11178
748;11179
751;11180
753;11181
753;11182
752;11183
752;11184
753;11185
755;11186
756;11187
756;11188
756;11189
755;11190
753;11191
751;11192
749;11193
747;11194
746;11195
744;11196
743;11197
742;11198
741;11199
741;11200
739;11201
739;11202
740;11203
741;11204
742;11205
744;11206
746;11207
750;11208
753;11209
755;11210
757;11211
759;11212
761;11213
765;11214
767;11215
768;11216
769;11217
769;11218
770;11219
772;11220
773;11221
774;11222
776;11223
778;11224
779;11225
780;11226
782;11227
782;11228
782;11229
781;11230
779;11231
778;11232
771;11233
767;11234
763;11235
760;11236
756;11237
752;11238
743;11239
738;11240
733;11241
728;11242
725;11243
721;11244
716;11245
714;11246
713;11247
713;11248
714;11249
715;11250
717;11251
718;11252
720;11253
721;11254
723;11255
724;11256
725;11257
728;11258
730;11259
732;11260
734;11261
735;11262
738;11263
742;11264
744;11265
746;11266
749;11267
751;11268
754;11269
756;11270
757;11271
757;11272
755;11273
751;11274
748;11275
741;11276
739;11277
738;11278
737;11279
735;11280
734;11281
733;11282
735;11283
736;11284
738;11285
741;11286
744;11287
748;11288
754;11289
757;11290
759;11291
760;11292
760;11293
761;11294
761;11295
759;11296
759;11297
757;11298
756;11299
756;11300
755;11301
755;11302
755;11303
756;11304
757;11305
758;11306
760;11307
762;11308
763;11309
765;11310
766;11311
767;11312
767;11313
765;11314
764;11315
763;11316
762;11317
761;11318
761;11319
760;11320
759;11321
758;11322
756;11323
752;11324
748;11325
739;11326
735;11327
730;11328
726;11329
722;11330
719;11331
712;11332
710;11333
709;11334
708;11335
707;11336
708;11337
710;11338
712;11339
715;11340
717;11341
719;11342
722;11343
728;11344
731;11345
733;11346
736;11347
739;11348
741;11349
742;11350
743;11351
743;11352
742;11353
740;11354
739;11355
737;11356
735;11357
735;11358
735;11359
736;11360
737;11361
737;11362
738;11363
738;11364
737;11365
735;11366
731;11367
727;11368
725;11369
720;11370
720;11371
719;11372
719;11373
720;11374
722;11375
726;11376
729;11377
732;11378
736;11379
739;11380
743;11381
751;11382
754;11383
757;11384
759;11385
760;11386
761;11387
764;11388
764;11389
765;11390
765;11391
765;11392
764;11393
764;11394
762;11395
763;11396
762;11397
763;11398
763;11399
762;11400
757;11401
754;11402
752;11403
750;11404
749;11405
748;11406
748;11407
748;11408
748;11409
749;11410
750;11411
751;11412
753;11413
754;11414
754;11415
753;11416
753;11417
753;11418
753;11419
753;11420
752;11421
751;11422
750;11423
749;11424
748;11425
746;11426
746;11427
745;11428
745;11429
745;11430
745;11431
745;11432
745;11433
745;11434
745;11435
745;11436
745;11437
745;11438
746;11439
747;11440
748;11441
749;11442
751;11443
754;11444
755;11445
757;11446
758;11447
759;11448
760;11449
759;11450
759;11451
759;11452
760;11453
759;11454
759;11455
759;11456
758;11457
756;11458
755;11459
752;11460
750;11461
749;11462
745;11463
744;11464
743;11465
742;11466
742;11467
741;11468
739;11469
738;11470
738;11471
738;11472
739;11473
740;11474
742;11475
744;11476
746;11477
748;11478
751;11479
754;11480
757;11481
763;11482
766;11483
767;11484
766;11485
764;11486
761;11487
754;11488
751;11489
748;11490
744;11491
740;11492
736;11493
728;11494
725;11495
723;11496
721;11497
720;11498
721;11499
723;11500
724;11501
726;11502
728;11503
729;11504
731;11505
735;11506
737;11507
739;11508
740;11509
742;11510
744;11511
745;11512
747;11513
747;11514
748;11515
748;11516
748;11517
748;11518
748;11519
747;11520
747;11521
747;11522
747;11523
746;11524
746;11525
746;11526
746;11527
744;11528
743;11529
742;11530
739;11531
738;11532
738;11533
738;11534
739;11535
740;11536
741;11537
745;11538
748;11539
750;11540
752;11541
755;11542
757;11543
761;11544
763;11545
765;11546
767;11547
768;11548
769;11549
770;11550
770;11551
769;11552
768;11553
767;11554
766;11555
762;11556
758;11557
755;11558
752;11559
749;11560
746;11561
740;11562
738;11563
736;11564
734;11565
732;11566
731;11567
730;11568
730;11569
729;11570
729;11571
729;11572
729;11573
731;11574
732;11575
733;11576
733;11577
734;11578
735;11579
736;11580
737;11581
735;11582
733;11583
730;11584
725;11585
721;11586
712;11587
709;11588
706;11589
703;11590
701;11591
700;11592
700;11593
701;11594
702;11595
703;11596
706;11597
708;11598
713;11599
716;11600
719;11601
722;11602
723;11603
724;11604
728;11605
729;11606
731;11607
733;11608
735;11609
737;11610
741;11611
742;11612
744;11613
747;11614
749;11615
751;11616
753;11617
758;11618
760;11619
762;11620
764;11621
765;11622
767;11623
768;11624
768;11625
768;11626
768;11627
767;11628
767;11629
767;11630
767;11631
766;11632
766;11633
765;11634
764;11635
762;11636
758;11637
756;11638
755;11639
754;11640
753;11641
752;11642
752;11643
752;11644
753;11645
754;11646
756;11647
757;11648
761;11649
763;11650
765;11651
768;11652
770;11653
772;11654
776;11655
778;11656
778;11657
779;11658
778;11659
777;11660
771;11661
769;11662
766;11663
764;11664
762;11665
760;11666
758;11667
758;11668
757;11669
758;11670
758;11671
759;11672
761;11673
760;11674
759;11675
757;11676
753;11677
750;11678
745;11679
742;11680
740;11681
738;11682
736;11683
735;11684
734;11685
735;11686
736;11687
738;11688
740;11689
743;11690
746;11691
753;11692
756;11693
759;11694
763;11695
765;11696
765;11697
760;11698
756;11699
752;11700
748;11701
743;11702
738;11703
729;11704
726;11705
723;11706
721;11707
720;11708
720;11709
721;11710
725;11711
728;11712
731;11713
734;11714
737;11715
739;11716
744;11717
745;11718
747;11719
748;11720
749;11721
750;11722
752;11723
752;11724
752;11725
752;11726
752;11727
752;11728
752;11729
753;11730
753;11731
753;11732
753;11733
754;11734
756;11735
757;11736
759;11737
761;11738
762;11739
763;11740
765;11741
768;11742
769;11743
770;11744
771;11745
771;11746
771;11747
769;11748
768;11749
766;11750
762;11751
757;11752
749;11753
735;11754
728;11755
722;11756
717;11757
713;11758
710;11759
707;11760
707;11761
709;11762
711;11763
714;11764
717;11765
725;11766
729;11767
732;11768
736;11769
739;11770
743;11771
749;11772
753;11773
756;11774
758;11775
761;11776
763;11777
765;11778
769;11779
772;11780
774;11781
775;11782
777;11783
779;11784
779;11785
779;11786
779;11787
778;11788
778;11789
777;11790
770;11791
765;11792
760;11793
755;11794
751;11795
748;11796
742;11797
738;11798
734;11799
731;11800
727;11801
725;11802
723;11803
723;11804
725;11805
726;11806
728;11807
731;11808
732;11809
737;11810
739;11811
742;11812
747;11813
750;11814
753;11815
759;11816
763;11817
766;11818
769;11819
773;11820
775;11821
778;11822
779;11823
778;11824
778;11825
778;11826
779;11827
778;11828
778;11829
777;11830
776;11831
776;11832
775;11833
774;11834
773;11835
773;11836
773;11837
773;11838
774;11839
774;11840
775;11841
776;11842
776;11843
777;11844
777;11845
777;11846
777;11847
777;11848
776;11849
775;11850
775;11851
774;11852
771;11853
770;11854
769;11855
768;11856
767;11857
766;11858
760;11859
757;11860
754;11861
751;11862
748;11863
747;11864
745;11865
744;11866
743;11867
741;11868
739;11869
737;11870
735;11871
734;11872
734;11873
733;11874
732;11875
731;11876
731;11877
731;11878
732;11879
733;11880
735;11881
737;11882
740;11883
746;11884
749;11885
752;11886
755;11887
758;11888
761;11889
766;11890
767;11891
768;11892
769;11893
768;11894
767;11895
764;11896
762;11897
760;11898
759;11899
757;11900
755;11901
752;11902
746;11903
743;11904
740;11905
735;11906
733;11907
730;11908
729;11909
729;11910
730;11911
732;11912
734;11913
737;11914
743;11915
747;11916
751;11917
754;11918
758;11919
761;11920
768;11921
771;11922
773;11923
774;11924
775;11925
776;11926
778;11927
778;11928
778;11929
778;11930
777;11931
776;11932
775;11933
772;11934
770;11935
767;11936
765;11937
763;11938
760;11939
753;11940
748;11941
745;11942
741;11943
737;11944
734;11945
728;11946
726;11947
726;11948
725;11949
725;11950
726;11951
727;11952
726;11953
726;11954
725;11955
725;11956
725;11957
725;11958
727;11959
729;11960
731;11961
733;11962
736;11963
738;11964
743;11965
744;11966
745;11967
747;11968
748;11969
749;11970
752;11971
753;11972
754;11973
753;11974
753;11975
752;11976
751;11977
750;11978
748;11979
746;11980
744;11981
742;11982
741;11983
741;11984
742;11985
742;11986
743;11987
744;11988
745;11989
748;11990
749;11991
751;11992
753;11993
754;11994
755;11995
757;11996
758;11997
759;11998
760;11999
761;12000
760;12001
758;12002
755;12003
752;12004
748;12005
745;12006
742;12007
738;12008
737;12009
736;12010
736;12011
736;12012
736;12013
739;12014
742;12015
744;12016
745;12017
747;12018
748;12019
752;12020
753;12021
754;12022
755;12023
756;12024
758;12025
759;12026
762;12027
761;12028
759;12029
757;12030
754;12031
752;12032
749;12033
748;12034
748;12035
748;12036
747;12037
748;12038
750;12039
751;12040
753;12041
755;12042
758;12043
761;12044
766;12045
768;12046
769;12047
770;12048
771;12049
772;12050
774;12051
774;12052
773;12053
774;12054
773;12055
772;12056
772;12057
770;12058
768;12059
767;12060
765;12061
763;12062
762;12063
757;12064
753;12065
746;12066
739;12067
731;12068
724;12069
711;12070
707;12071
704;12072
701;12073
700;12074
700;12075
699;12076
700;12077
701;12078
703;12079
706;12080
710;12081
717;12082
722;12083
726;12084
730;12085
733;12086
737;12087
744;12088
747;12089
750;12090
752;12091
753;12092
755;12093
756;12094
759;12095
759;12096
758;12097
758;12098
756;12099
754;12100
752;12101
752;12102
751;12103
751;12104
751;12105
751;12106
753;12107
754;12108
755;12109
756;12110
757;12111
758;12112
761;12113
761;12114
761;12115
762;12116
763;12117
764;12118
767;12119
768;12120
769;12121
768;12122
766;12123
763;12124
756;12125
754;12126
752;12127
750;12128
749;12129
748;12130
748;12131
750;12132
752;12133
753;12134
754;12135
753;12136
751;12137
744;12138
741;12139
737;12140
733;12141
730;12142
726;12143
722;12144
721;12145
720;12146
721;12147
722;12148
723;12149
728;12150
732;12151
735;12152
738;12153
741;12154
744;12155
747;12156
754;12157
757;12158
759;12159
761;12160
762;12161
764;12162
766;12163
766;12164
765;12165
764;12166
764;12167
762;12168
758;12169
755;12170
754;12171
752;12172
750;12173
748;12174
746;12175
746;12176
746;12177
747;12178
748;12179
750;12180
755;12181
757;12182
760;12183
762;12184
764;12185
766;12186
769;12187
771;12188
772;12189
773;12190
773;12191
773;12192
771;12193
769;12194
767;12195
766;12196
765;12197
764;12198
764;12199
763;12200
763;12201
763;12202
764;12203
765;12204
766;12205
763;12206
761;12207
760;12208
758;12209
757;12210
756;12211
755;12212
755;12213
754;12214
753;12215
753;12216
752;12217
751;12218
750;12219
750;12220
751;12221
750;12222
750;12223
749;12224
749;12225
749;12226
749;12227
751;12228
752;12229
753;12230
755;12231
756;12232
756;12233
756;12234
755;12235
753;12236
748;12237
743;12238
736;12239
730;12240
724;12241
719;12242
713;12243
710;12244
709;12245
709;12246
708;12247
709;12248
712;12249
714;12250
717;12251
721;12252
726;12253
731;12254
737;12255
745;12256
749;12257
752;12258
754;12259
756;12260
758;12261
761;12262
763;12263
766;12264
768;12265
770;12266
771;12267
773;12268
774;12269
773;12270
772;12271
771;12272
770;12273
768;12274
767;12275
766;12276
765;12277
765;12278
765;12279
765;12280
764;12281
763;12282
761;12283
758;12284
755;12285
747;12286
744;12287
740;12288
737;12289
734;12290
732;12291
731;12292
728;12293
728;12294
729;12295
730;12296
731;12297
733;12298
732;12299
731;12300
730;12301
727;12302
725;12303
723;12304
719;12305
719;12306
719;12307
720;12308
721;12309
723;12310
726;12311
728;12312
730;12313
732;12314
735;12315
737;12316
739;12317
740;12318
739;12319
739;12320
738;12321
737;12322
735;12323
732;12324
732;12325
732;12326
732;12327
733;12328
735;12329
737;12330
736;12331
735;12332
735;12333
734;12334
734;12335
735;12336
736;12337
737;12338
738;12339
739;12340
739;12341
741;12342
742;12343
744;12344
747;12345
750;12346
753;12347
757;12348
757;12349
757;12350
758;12351
758;12352
759;12353
759;12354
759;12355
759;12356
758;12357
757;12358
757;12359
756;12360
755;12361
754;12362
753;12363
753;12364
752;12365
752;12366
749;12367
747;12368
744;12369
741;12370
739;12371
737;12372
734;12373
734;12374
734;12375
736;12376
737;12377
740;12378
746;12379
749;12380
753;12381
755;12382
758;12383
761;12384
767;12385
770;12386
773;12387
774;12388
777;12389
779;12390
780;12391
781;12392
781;12393
779;12394
775;12395
771;12396
766;12397
758;12398
754;12399
751;12400
748;12401
746;12402
744;12403
738;12404
735;12405
733;12406
729;12407
726;12408
724;12409
719;12410
718;12411
716;12412
716;12413
716;12414
717;12415
719;12416
723;12417
726;12418
729;12419
733;12420
736;12421
740;12422
747;12423
750;12424
753;12425
756;12426
758;12427
760;12428
763;12429
765;12430
766;12431
767;12432
768;12433
769;12434
770;12435
769;12436
768;12437
766;12438
763;12439
759;12440
753;12441
752;12442
750;12443
749;12444
748;12445
748;12446
749;12447
751;12448
753;12449
755;12450
757;12451
759;12452
761;12453
763;12454
762;12455
759;12456
755;12457
749;12458
745;12459
738;12460
735;12461
732;12462
730;12463
729;12464
728;12465
728;12466
728;12467
729;12468
730;12469
732;12470
733;12471
736;12472
741;12473
744;12474
747;12475
749;12476
750;12477
751;12478
751;12479
751;12480
751;12481
749;12482
749;12483
748;12484
745;12485
743;12486
742;12487
740;12488
738;12489
735;12490
732;12491
731;12492
730;12493
729;12494
728;12495
727;12496
726;12497
727;12498
728;12499
729;12500
731;12501
732;12502
734;12503
738;12504
739;12505
740;12506
741;12507
741;12508
741;12509
742;12510
742;12511
742;12512
742;12513
741;12514
740;12515
740;12516
739;12517
739;12518
739;12519
739;12520
738;12521
731;12522
726;12523
720;12524
714;12525
710;12526
706;12527
703;12528
700;12529
699;12530
700;12531
700;12532
702;12533
704;12534
710;12535
713;12536
717;12537
721;12538
724;12539
728;12540
732;12541
733;12542
735;12543
738;12544
740;12545
742;12546
744;12547
747;12548
749;12549
750;12550
751;12551
752;12552
753;12553
756;12554
756;12555
756;12556
754;12557
753;12558
751;12559
748;12560
747;12561
747;12562
747;12563
747;12564
748;12565
750;12566
751;12567
753;12568
755;12569
758;12570
760;12571
763;12572
768;12573
771;12574
773;12575
775;12576
775;12577
775;12578
773;12579
770;12580
768;12581
766;12582
763;12583
760;12584
754;12585
751;12586
748;12587
745;12588
743;12589
741;12590
740;12591
739;12592
740;12593
741;12594
742;12595
743;12596
748;12597
750;12598
752;12599
755;12600
757;12601
759;12602
761;12603
761;12604
762;12605
763;12606
762;12607
761;12608
757;12609
755;12610
754;12611
752;12612
750;12613
748;12614
746;12615
741;12616
738;12617
735;12618
731;12619
728;12620
723;12621
713;12622
709;12623
705;12624
703;12625
702;12626
702;12627
704;12628
706;12629
709;12630
712;12631
716;12632
720;12633
728;12634
732;12635
736;12636
740;12637
744;12638
748;12639
756;12640
758;12641
758;12642
756;12643
750;12644
743;12645
737;12646
725;12647
719;12648
714;12649
710;12650
707;12651
704;12652
702;12653
703;12654
705;12655
708;12656
712;12657
716;12658
726;12659
730;12660
734;12661
737;12662
739;12663
741;12664
747;12665
749;12666
751;12667
753;12668
755;12669
757;12670
761;12671
763;12672
765;12673
767;12674
769;12675
771;12676
772;12677
775;12678
776;12679
778;12680
778;12681
777;12682
776;12683
773;12684
772;12685
771;12686
769;12687
767;12688
765;12689
759;12690
755;12691
752;12692
749;12693
746;12694
744;12695
740;12696
739;12697
738;12698
738;12699
739;12700
739;12701
738;12702
738;12703
737;12704
736;12705
735;12706
734;12707
733;12708
731;12709
731;12710
730;12711
729;12712
729;12713
729;12714
729;12715
729;12716
729;12717
729;12718
730;12719
732;12720
734;12721
736;12722
738;12723
741;12724
743;12725
746;12726
748;12727
754;12728
756;12729
758;12730
759;12731
759;12732
759;12733
758;12734
758;12735
757;12736
757;12737
757;12738
757;12739
754;12740
752;12741
748;12742
744;12743
740;12744
736;12745
727;12746
722;12747
716;12748
711;12749
706;12750
703;12751
701;12752
702;12753
703;12754
705;12755
708;12756
712;12757
716;12758
724;12759
728;12760
731;12761
734;12762
736;12763
737;12764
735;12765
733;12766
729;12767
726;12768
723;12769
720;12770
719;12771
718;12772
719;12773
720;12774
721;12775
723;12776
727;12777
728;12778
729;12779
729;12780
728;12781
728;12782
728;12783
729;12784
729;12785
730;12786
730;12787
731;12788
732;12789
736;12790
738;12791
740;12792
741;12793
742;12794
741;12795
740;12796
739;12797
738;12798
737;12799
737;12800
737;12801
738;12802
738;12803
737;12804
735;12805
734;12806
732;12807
730;12808
726;12809
724;12810
721;12811
718;12812
716;12813
714;12814
709;12815
706;12816
705;12817
704;12818
705;12819
706;12820
708;12821
712;12822
713;12823
715;12824
716;12825
717;12826
719;12827
723;12828
725;12829
728;12830
729;12831
732;12832
734;12833
738;12834
740;12835
741;12836
743;12837
743;12838
741;12839
739;12840
739;12841
739;12842
740;12843
741;12844
743;12845
744;12846
748;12847
750;12848
752;12849
754;12850
755;12851
754;12852
748;12853
742;12854
734;12855
724;12856
714;12857
703;12858
686;12859
679;12860
672;12861
667;12862
665;12863
664;12864
666;12865
669;12866
673;12867
677;12868
682;12869
687;12870
694;12871
707;12872
714;12873
721;12874
727;12875
733;12876
739;12877
746;12878
749;12879
751;12880
753;12881
756;12882
758;12883
763;12884
765;12885
768;12886
771;12887
773;12888
776;12889
781;12890
783;12891
786;12892
788;12893
790;12894
792;12895
795;12896
796;12897
797;12898
796;12899
796;12900
795;12901
795;12902
794;12903
793;12904
792;12905
792;12906
791;12907
790;12908
787;12909
786;12910
785;12911
784;12912
783;12913
783;12914
781;12915
780;12916
778;12917
777;12918
776;12919
774;12920
771;12921
770;12922
769;12923
768;12924
767;12925
766;12926
765;12927
766;12928
766;12929
766;12930
767;12931
767;12932
768;12933
768;12934
768;12935
767;12936
766;12937
764;12938
761;12939
760;12940
755;12941
750;12942
745;12943
740;12944
736;12945
732;12946
731;12947
731;12948
732;12949
733;12950
736;12951
742;12952
746;12953
750;12954
754;12955
758;12956
762;12957
770;12958
773;12959
775;12960
777;12961
779;12962
781;12963
782;12964
781;12965
778;12966
775;12967
771;12968
767;12969
761;12970
758;12971
756;12972
754;12973
752;12974
749;12975
743;12976
740;12977
737;12978
735;12979
733;12980
733;12981
734;12982
735;12983
735;12984
737;12985
739;12986
740;12987
744;12988
746;12989
748;12990
750;12991
752;12992
753;12993
754;12994
754;12995
754;12996
753;12997
752;12998
751;12999
750;13000
748;13001
747;13002
747;13003
746;13004
746;13005
746;13006
747;13007
748;13008
750;13009
751;13010
753;13011
755;13012
758;13013
760;13014
761;13015
761;13016
762;13017
762;13018
761;13019
760;13020
759;13021
758;13022
758;13023
758;13024
758;13025
758;13026
758;13027
757;13028
757;13029
757;13030
756;13031
755;13032
753;13033
751;13034
747;13035
742;13036
727;13037
721;13038
716;13039
711;13040
707;13041
703;13042
700;13043
695;13044
694;13045
694;13046
695;13047
697;13048
700;13049
708;13050
712;13051
716;13052
720;13053
724;13054
727;13055
731;13056
734;13057
735;13058
735;13059
734;13060
732;13061
729;13062
727;13063
726;13064
725;13065
724;13066
724;13067
723;13068
726;13069
727;13070
728;13071
730;13072
731;13073
732;13074
731;13075
729;13076
728;13077
727;13078
726;13079
726;13080
727;13081
729;13082
730;13083
732;13084
734;13085
736;13086
738;13087
743;13088
746;13089
749;13090
751;13091
754;13092
757;13093
764;13094
766;13095
769;13096
770;13097
771;13098
772;13099
774;13100
775;13101
775;13102
776;13103
777;13104
778;13105
779;13106
782;13107
783;13108
783;13109
