emg;t
748;0
748;1
748;2
748;3
748;4
748;5
748;6
748;7
748;8
748;9
748;10
748;11
748;12
748;13
748;14
748;15
748;16
748;17
748;18
748;19
748;20
748;21
748;22
748;23
748;24
748;25
748;26
748;27
748;28
748;29
748;30
748;31
748;32
748;33
748;34
748;35
747;36
748;37
748;38
748;39
748;40
748;41
748;42
748;43
748;44
748;45
748;46
748;47
748;48
748;49
748;50
747;51
748;52
748;53
748;54
747;55
748;56
748;57
748;58
748;59
748;60
748;61
748;62
748;63
748;64
748;65
748;66
748;67
748;68
748;69
748;70
748;71
748;72
748;73
748;74
748;75
748;76
748;77
748;78
748;79
748;80
748;81
748;82
748;83
748;84
748;85
748;86
748;87
748;88
748;89
748;90
748;91
748;92
748;93
748;94
748;95
748;96
748;97
748;98
748;99
748;100
748;101
748;102
748;103
748;104
748;105
748;106
748;107
748;108
748;109
748;110
748;111
747;112
748;113
748;114
748;115
748;116
747;117
748;118
748;119
748;120
748;121
748;122
748;123
748;124
748;125
748;126
748;127
748;128
748;129
748;130
748;131
748;132
748;133
748;134
748;135
748;136
748;137
748;138
748;139
748;140
748;141
748;142
748;143
748;144
748;145
748;146
748;147
748;148
747;149
748;150
748;151
748;152
748;153
748;154
748;155
748;156
748;157
748;158
748;159
748;160
748;161
748;162
748;163
748;164
748;165
748;166
748;167
748;168
748;169
748;170
748;171
748;172
748;173
748;174
748;175
748;176
748;177
748;178
748;179
748;180
748;181
748;182
748;183
748;184
748;185
748;186
748;187
748;188
748;189
748;190
748;191
748;192
748;193
748;194
748;195
748;196
748;197
748;198
748;199
748;200
748;201
748;202
748;203
748;204
748;205
748;206
748;207
747;208
748;209
748;210
748;211
748;212
748;213
748;214
747;215
748;216
748;217
748;218
748;219
748;220
748;221
748;222
748;223
748;224
747;225
748;226
748;227
748;228
748;229
748;230
748;231
748;232
748;233
748;234
748;235
748;236
748;237
748;238
748;239
748;240
748;241
748;242
748;243
748;244
748;245
748;246
748;247
748;248
748;249
748;250
748;251
748;252
748;253
748;254
748;255
748;256
748;257
748;258
748;259
748;260
748;261
748;262
748;263
748;264
748;265
747;266
748;267
748;268
747;269
748;270
748;271
748;272
748;273
748;274
748;275
748;276
748;277
748;278
748;279
748;280
748;281
748;282
748;283
747;284
748;285
748;286
748;287
748;288
748;289
748;290
748;291
748;292
748;293
748;294
748;295
748;296
748;297
748;298
748;299
748;300
748;301
748;302
748;303
748;304
748;305
748;306
748;307
748;308
748;309
748;310
748;311
748;312
748;313
747;314
747;315
747;316
747;317
747;318
747;319
748;320
748;321
747;322
747;323
747;324
747;325
747;326
747;327
747;328
747;329
747;330
747;331
747;332
747;333
747;334
747;335
747;336
747;337
747;338
747;339
747;340
747;341
747;342
748;343
747;344
747;345
747;346
748;347
747;348
747;349
747;350
747;351
747;352
748;353
748;354
747;355
748;356
748;357
748;358
748;359
748;360
748;361
748;362
747;363
747;364
747;365
747;366
748;367
747;368
747;369
747;370
747;371
748;372
747;373
748;374
747;375
747;376
747;377
747;378
747;379
747;380
747;381
747;382
747;383
747;384
747;385
747;386
747;387
748;388
747;389
747;390
747;391
747;392
747;393
747;394
747;395
747;396
747;397
747;398
747;399
747;400
747;401
747;402
747;403
747;404
748;405
747;406
748;407
747;408
748;409
748;410
747;411
748;412
747;413
748;414
748;415
748;416
748;417
748;418
747;419
748;420
748;421
748;422
748;423
748;424
748;425
748;426
747;427
748;428
747;429
747;430
747;431
747;432
747;433
747;434
748;435
747;436
747;437
747;438
747;439
748;440
747;441
747;442
747;443
747;444
747;445
747;446
747;447
748;448
747;449
747;450
747;451
747;452
747;453
747;454
747;455
747;456
747;457
748;458
747;459
748;460
748;461
748;462
747;463
747;464
747;465
748;466
747;467
748;468
748;469
747;470
748;471
748;472
748;473
748;474
747;475
748;476
748;477
748;478
748;479
748;480
748;481
747;482
747;483
748;484
748;485
747;486
747;487
748;488
747;489
747;490
747;491
747;492
748;493
748;494
747;495
747;496
747;497
748;498
748;499
747;500
748;501
747;502
747;503
747;504
747;505
747;506
747;507
747;508
747;509
747;510
747;511
748;512
747;513
747;514
747;515
748;516
748;517
748;518
747;519
748;520
748;521
748;522
748;523
748;524
748;525
747;526
748;527
748;528
748;529
747;530
747;531
747;532
747;533
747;534
747;535
747;536
747;537
747;538
748;539
747;540
747;541
747;542
747;543
747;544
747;545
747;546
747;547
747;548
747;549
747;550
747;551
747;552
747;553
747;554
747;555
747;556
747;557
747;558
747;559
747;560
747;561
747;562
747;563
747;564
747;565
747;566
747;567
747;568
747;569
747;570
747;571
747;572
747;573
747;574
747;575
747;576
747;577
747;578
747;579
747;580
747;581
747;582
747;583
747;584
747;585
747;586
747;587
747;588
747;589
747;590
747;591
747;592
747;593
747;594
747;595
747;596
747;597
747;598
747;599
747;600
747;601
747;602
747;603
746;604
747;605
747;606
747;607
746;608
747;609
747;610
746;611
747;612
747;613
747;614
747;615
746;616
746;617
746;618
746;619
747;620
746;621
746;622
746;623
747;624
747;625
747;626
747;627
746;628
746;629
746;630
747;631
747;632
746;633
747;634
747;635
747;636
747;637
747;638
747;639
747;640
746;641
747;642
747;643
747;644
747;645
747;646
746;647
746;648
747;649
746;650
747;651
747;652
746;653
746;654
746;655
746;656
746;657
746;658
746;659
746;660
746;661
746;662
746;663
746;664
746;665
746;666
746;667
746;668
746;669
746;670
746;671
746;672
746;673
746;674
746;675
746;676
746;677
746;678
746;679
747;680
747;681
747;682
746;683
747;684
746;685
747;686
747;687
747;688
746;689
746;690
747;691
746;692
747;693
747;694
747;695
746;696
747;697
746;698
746;699
747;700
747;701
747;702
746;703
747;704
747;705
747;706
747;707
747;708
746;709
746;710
747;711
746;712
746;713
746;714
746;715
746;716
746;717
746;718
746;719
746;720
747;721
747;722
746;723
746;724
746;725
746;726
746;727
746;728
746;729
746;730
746;731
746;732
746;733
746;734
746;735
747;736
747;737
747;738
747;739
747;740
746;741
747;742
747;743
747;744
747;745
747;746
747;747
747;748
746;749
747;750
747;751
747;752
747;753
747;754
747;755
747;756
747;757
747;758
747;759
747;760
747;761
747;762
747;763
747;764
747;765
747;766
747;767
747;768
747;769
747;770
747;771
747;772
747;773
747;774
747;775
747;776
747;777
747;778
747;779
746;780
747;781
747;782
747;783
747;784
747;785
747;786
747;787
747;788
747;789
747;790
747;791
747;792
747;793
747;794
747;795
747;796
747;797
747;798
747;799
747;800
747;801
747;802
747;803
747;804
747;805
747;806
747;807
747;808
747;809
747;810
747;811
747;812
747;813
747;814
747;815
747;816
747;817
747;818
747;819
747;820
747;821
747;822
747;823
747;824
747;825
747;826
747;827
747;828
747;829
747;830
747;831
747;832
747;833
747;834
747;835
747;836
747;837
747;838
747;839
747;840
747;841
747;842
747;843
747;844
747;845
747;846
747;847
747;848
747;849
747;850
747;851
747;852
747;853
747;854
747;855
747;856
747;857
747;858
747;859
747;860
747;861
747;862
747;863
747;864
747;865
747;866
747;867
747;868
747;869
747;870
747;871
747;872
747;873
747;874
747;875
747;876
747;877
747;878
747;879
747;880
747;881
747;882
747;883
747;884
747;885
747;886
747;887
747;888
747;889
747;890
747;891
747;892
747;893
747;894
747;895
747;896
747;897
747;898
747;899
747;900
747;901
747;902
747;903
747;904
747;905
747;906
747;907
747;908
747;909
747;910
747;911
747;912
747;913
747;914
747;915
747;916
747;917
747;918
747;919
747;920
747;921
747;922
747;923
747;924
747;925
747;926
747;927
747;928
747;929
747;930
747;931
747;932
747;933
747;934
747;935
747;936
747;937
747;938
747;939
747;940
747;941
747;942
747;943
747;944
747;945
747;946
747;947
747;948
747;949
747;950
747;951
747;952
747;953
747;954
747;955
747;956
747;957
747;958
747;959
747;960
747;961
747;962
747;963
747;964
747;965
747;966
747;967
747;968
747;969
747;970
747;971
747;972
747;973
747;974
747;975
747;976
747;977
747;978
747;979
747;980
747;981
747;982
747;983
747;984
747;985
747;986
747;987
747;988
747;989
747;990
747;991
747;992
747;993
747;994
747;995
747;996
747;997
747;998
747;999
747;1000
747;1001
747;1002
747;1003
747;1004
747;1005
747;1006
747;1007
747;1008
747;1009
747;1010
747;1011
747;1012
747;1013
747;1014
747;1015
747;1016
747;1017
747;1018
747;1019
747;1020
747;1021
747;1022
747;1023
747;1024
747;1025
747;1026
747;1027
747;1028
747;1029
747;1030
747;1031
747;1032
747;1033
747;1034
747;1035
748;1036
747;1037
747;1038
748;1039
748;1040
747;1041
747;1042
747;1043
747;1044
747;1045
747;1046
748;1047
748;1048
747;1049
747;1050
747;1051
747;1052
747;1053
747;1054
747;1055
747;1056
747;1057
747;1058
747;1059
747;1060
747;1061
747;1062
747;1063
747;1064
747;1065
747;1066
747;1067
747;1068
747;1069
747;1070
747;1071
747;1072
747;1073
747;1074
747;1075
747;1076
747;1077
747;1078
747;1079
748;1080
747;1081
747;1082
747;1083
747;1084
747;1085
748;1086
748;1087
747;1088
748;1089
748;1090
748;1091
748;1092
748;1093
747;1094
748;1095
748;1096
748;1097
748;1098
748;1099
748;1100
748;1101
747;1102
748;1103
748;1104
747;1105
747;1106
747;1107
747;1108
747;1109
747;1110
747;1111
747;1112
748;1113
747;1114
747;1115
747;1116
747;1117
747;1118
747;1119
747;1120
747;1121
747;1122
747;1123
748;1124
747;1125
747;1126
747;1127
748;1128
747;1129
747;1130
748;1131
747;1132
747;1133
747;1134
747;1135
748;1136
748;1137
748;1138
748;1139
748;1140
747;1141
748;1142
748;1143
748;1144
748;1145
748;1146
748;1147
748;1148
748;1149
748;1150
748;1151
748;1152
748;1153
748;1154
748;1155
748;1156
748;1157
748;1158
748;1159
748;1160
748;1161
748;1162
748;1163
748;1164
748;1165
748;1166
748;1167
748;1168
748;1169
748;1170
748;1171
748;1172
748;1173
748;1174
748;1175
748;1176
748;1177
748;1178
748;1179
748;1180
748;1181
748;1182
748;1183
748;1184
748;1185
748;1186
748;1187
748;1188
748;1189
748;1190
748;1191
748;1192
748;1193
748;1194
748;1195
748;1196
748;1197
748;1198
748;1199
748;1200
748;1201
748;1202
748;1203
748;1204
748;1205
748;1206
748;1207
748;1208
748;1209
748;1210
748;1211
748;1212
748;1213
748;1214
748;1215
748;1216
748;1217
748;1218
748;1219
748;1220
748;1221
748;1222
748;1223
748;1224
748;1225
748;1226
748;1227
748;1228
748;1229
748;1230
748;1231
748;1232
748;1233
748;1234
748;1235
748;1236
748;1237
748;1238
748;1239
748;1240
748;1241
748;1242
748;1243
748;1244
748;1245
748;1246
748;1247
748;1248
748;1249
748;1250
748;1251
748;1252
748;1253
748;1254
748;1255
748;1256
748;1257
748;1258
748;1259
748;1260
748;1261
748;1262
748;1263
748;1264
748;1265
748;1266
748;1267
748;1268
748;1269
749;1270
748;1271
748;1272
748;1273
748;1274
748;1275
748;1276
748;1277
748;1278
748;1279
748;1280
748;1281
748;1282
748;1283
748;1284
748;1285
748;1286
748;1287
748;1288
748;1289
748;1290
748;1291
748;1292
748;1293
748;1294
748;1295
748;1296
748;1297
748;1298
748;1299
748;1300
748;1301
748;1302
748;1303
748;1304
748;1305
748;1306
748;1307
748;1308
748;1309
748;1310
748;1311
748;1312
748;1313
748;1314
749;1315
748;1316
748;1317
748;1318
748;1319
749;1320
748;1321
748;1322
748;1323
748;1324
748;1325
748;1326
748;1327
748;1328
748;1329
748;1330
748;1331
748;1332
748;1333
748;1334
748;1335
748;1336
748;1337
748;1338
748;1339
748;1340
748;1341
748;1342
748;1343
748;1344
748;1345
748;1346
748;1347
748;1348
748;1349
748;1350
748;1351
748;1352
748;1353
748;1354
748;1355
748;1356
748;1357
748;1358
748;1359
748;1360
748;1361
748;1362
748;1363
749;1364
748;1365
748;1366
748;1367
748;1368
749;1369
748;1370
749;1371
749;1372
749;1373
749;1374
749;1375
749;1376
748;1377
748;1378
748;1379
749;1380
748;1381
749;1382
749;1383
749;1384
749;1385
749;1386
748;1387
748;1388
748;1389
748;1390
748;1391
748;1392
748;1393
748;1394
749;1395
748;1396
748;1397
748;1398
748;1399
748;1400
748;1401
749;1402
748;1403
748;1404
749;1405
749;1406
748;1407
748;1408
749;1409
748;1410
748;1411
749;1412
748;1413
748;1414
749;1415
748;1416
749;1417
748;1418
748;1419
749;1420
748;1421
749;1422
748;1423
749;1424
749;1425
748;1426
749;1427
749;1428
749;1429
749;1430
749;1431
749;1432
749;1433
749;1434
749;1435
749;1436
749;1437
749;1438
749;1439
749;1440
749;1441
748;1442
749;1443
749;1444
749;1445
749;1446
749;1447
749;1448
749;1449
749;1450
749;1451
749;1452
749;1453
748;1454
749;1455
749;1456
749;1457
749;1458
749;1459
748;1460
749;1461
748;1462
749;1463
748;1464
749;1465
749;1466
749;1467
748;1468
749;1469
748;1470
749;1471
749;1472
748;1473
749;1474
749;1475
749;1476
749;1477
749;1478
749;1479
749;1480
749;1481
749;1482
749;1483
749;1484
749;1485
749;1486
749;1487
749;1488
749;1489
749;1490
749;1491
749;1492
749;1493
749;1494
749;1495
749;1496
749;1497
749;1498
749;1499
749;1500
749;1501
749;1502
749;1503
749;1504
749;1505
749;1506
749;1507
749;1508
749;1509
748;1510
749;1511
749;1512
749;1513
749;1514
749;1515
749;1516
749;1517
748;1518
749;1519
748;1520
749;1521
749;1522
749;1523
749;1524
748;1525
749;1526
749;1527
748;1528
748;1529
749;1530
749;1531
749;1532
749;1533
749;1534
749;1535
749;1536
748;1537
749;1538
749;1539
748;1540
749;1541
749;1542
749;1543
749;1544
749;1545
749;1546
749;1547
749;1548
748;1549
749;1550
749;1551
749;1552
749;1553
749;1554
749;1555
748;1556
748;1557
749;1558
749;1559
748;1560
749;1561
749;1562
748;1563
748;1564
749;1565
748;1566
748;1567
748;1568
748;1569
748;1570
749;1571
748;1572
748;1573
748;1574
748;1575
748;1576
748;1577
748;1578
748;1579
748;1580
748;1581
748;1582
748;1583
748;1584
748;1585
748;1586
748;1587
748;1588
748;1589
748;1590
749;1591
748;1592
748;1593
749;1594
749;1595
748;1596
749;1597
749;1598
749;1599
748;1600
749;1601
748;1602
748;1603
749;1604
749;1605
749;1606
749;1607
749;1608
748;1609
748;1610
749;1611
749;1612
748;1613
748;1614
748;1615
749;1616
748;1617
748;1618
748;1619
748;1620
748;1621
748;1622
748;1623
748;1624
748;1625
748;1626
748;1627
748;1628
748;1629
748;1630
748;1631
748;1632
748;1633
748;1634
748;1635
748;1636
748;1637
748;1638
748;1639
748;1640
748;1641
749;1642
748;1643
749;1644
748;1645
749;1646
749;1647
748;1648
749;1649
749;1650
749;1651
749;1652
749;1653
749;1654
749;1655
749;1656
749;1657
749;1658
749;1659
749;1660
749;1661
749;1662
749;1663
749;1664
749;1665
749;1666
749;1667
749;1668
749;1669
749;1670
749;1671
749;1672
749;1673
749;1674
749;1675
749;1676
749;1677
748;1678
748;1679
749;1680
749;1681
749;1682
749;1683
749;1684
749;1685
748;1686
749;1687
749;1688
748;1689
749;1690
749;1691
749;1692
748;1693
749;1694
748;1695
749;1696
749;1697
748;1698
748;1699
749;1700
748;1701
749;1702
749;1703
748;1704
749;1705
749;1706
749;1707
749;1708
749;1709
749;1710
749;1711
749;1712
749;1713
749;1714
749;1715
749;1716
749;1717
749;1718
749;1719
749;1720
749;1721
749;1722
749;1723
749;1724
749;1725
748;1726
749;1727
748;1728
749;1729
749;1730
749;1731
749;1732
748;1733
748;1734
748;1735
748;1736
748;1737
748;1738
748;1739
748;1740
748;1741
749;1742
748;1743
748;1744
748;1745
748;1746
748;1747
748;1748
749;1749
749;1750
749;1751
748;1752
748;1753
749;1754
748;1755
749;1756
749;1757
749;1758
749;1759
749;1760
749;1761
749;1762
749;1763
749;1764
749;1765
749;1766
749;1767
749;1768
749;1769
749;1770
749;1771
749;1772
749;1773
749;1774
749;1775
749;1776
749;1777
749;1778
749;1779
749;1780
749;1781
749;1782
749;1783
749;1784
749;1785
749;1786
749;1787
749;1788
749;1789
749;1790
749;1791
749;1792
749;1793
748;1794
749;1795
748;1796
749;1797
749;1798
748;1799
748;1800
749;1801
749;1802
749;1803
748;1804
749;1805
748;1806
749;1807
749;1808
749;1809
749;1810
749;1811
749;1812
749;1813
749;1814
749;1815
749;1816
749;1817
749;1818
749;1819
749;1820
749;1821
749;1822
749;1823
749;1824
749;1825
749;1826
749;1827
749;1828
749;1829
749;1830
749;1831
749;1832
749;1833
749;1834
749;1835
749;1836
749;1837
749;1838
749;1839
749;1840
749;1841
749;1842
748;1843
749;1844
749;1845
749;1846
749;1847
749;1848
749;1849
749;1850
748;1851
749;1852
749;1853
748;1854
749;1855
749;1856
749;1857
749;1858
749;1859
749;1860
749;1861
748;1862
749;1863
749;1864
748;1865
749;1866
749;1867
749;1868
749;1869
749;1870
749;1871
749;1872
749;1873
749;1874
749;1875
749;1876
749;1877
749;1878
749;1879
749;1880
749;1881
749;1882
749;1883
749;1884
749;1885
749;1886
749;1887
749;1888
749;1889
749;1890
749;1891
749;1892
749;1893
749;1894
749;1895
749;1896
749;1897
749;1898
749;1899
749;1900
749;1901
749;1902
749;1903
749;1904
749;1905
749;1906
749;1907
748;1908
749;1909
749;1910
749;1911
749;1912
749;1913
748;1914
749;1915
749;1916
749;1917
749;1918
749;1919
749;1920
749;1921
749;1922
749;1923
748;1924
749;1925
749;1926
749;1927
748;1928
749;1929
749;1930
749;1931
749;1932
749;1933
749;1934
749;1935
748;1936
749;1937
748;1938
749;1939
749;1940
749;1941
749;1942
749;1943
749;1944
749;1945
749;1946
749;1947
748;1948
749;1949
748;1950
748;1951
748;1952
748;1953
748;1954
748;1955
748;1956
748;1957
748;1958
748;1959
748;1960
748;1961
748;1962
748;1963
748;1964
748;1965
748;1966
748;1967
748;1968
748;1969
748;1970
748;1971
748;1972
748;1973
748;1974
748;1975
748;1976
748;1977
748;1978
748;1979
748;1980
748;1981
748;1982
748;1983
748;1984
748;1985
748;1986
748;1987
748;1988
748;1989
748;1990
747;1991
748;1992
748;1993
748;1994
748;1995
748;1996
748;1997
748;1998
748;1999
748;2000
747;2001
748;2002
747;2003
747;2004
747;2005
748;2006
748;2007
747;2008
747;2009
747;2010
747;2011
747;2012
747;2013
747;2014
747;2015
747;2016
747;2017
747;2018
747;2019
747;2020
747;2021
747;2022
747;2023
747;2024
747;2025
747;2026
747;2027
747;2028
747;2029
747;2030
747;2031
747;2032
747;2033
747;2034
747;2035
747;2036
747;2037
747;2038
747;2039
747;2040
747;2041
747;2042
747;2043
747;2044
747;2045
747;2046
747;2047
747;2048
747;2049
747;2050
747;2051
747;2052
747;2053
747;2054
747;2055
747;2056
747;2057
747;2058
747;2059
747;2060
746;2061
747;2062
746;2063
747;2064
746;2065
747;2066
746;2067
746;2068
746;2069
746;2070
746;2071
746;2072
746;2073
746;2074
747;2075
746;2076
746;2077
746;2078
746;2079
746;2080
746;2081
746;2082
746;2083
746;2084
746;2085
746;2086
746;2087
746;2088
746;2089
746;2090
746;2091
746;2092
746;2093
746;2094
746;2095
746;2096
746;2097
746;2098
746;2099
746;2100
746;2101
746;2102
746;2103
746;2104
746;2105
746;2106
746;2107
746;2108
746;2109
746;2110
746;2111
746;2112
746;2113
746;2114
746;2115
746;2116
746;2117
746;2118
746;2119
746;2120
746;2121
746;2122
746;2123
746;2124
746;2125
746;2126
746;2127
746;2128
746;2129
746;2130
746;2131
746;2132
745;2133
746;2134
746;2135
746;2136
746;2137
746;2138
746;2139
746;2140
745;2141
746;2142
745;2143
746;2144
745;2145
745;2146
745;2147
745;2148
745;2149
745;2150
746;2151
745;2152
745;2153
746;2154
745;2155
745;2156
745;2157
746;2158
746;2159
745;2160
745;2161
745;2162
746;2163
745;2164
746;2165
746;2166
745;2167
746;2168
746;2169
745;2170
745;2171
745;2172
745;2173
745;2174
746;2175
745;2176
746;2177
745;2178
745;2179
746;2180
745;2181
745;2182
745;2183
745;2184
745;2185
745;2186
745;2187
745;2188
745;2189
745;2190
745;2191
745;2192
745;2193
745;2194
745;2195
745;2196
745;2197
745;2198
745;2199
745;2200
745;2201
745;2202
745;2203
745;2204
745;2205
745;2206
745;2207
745;2208
745;2209
745;2210
745;2211
745;2212
745;2213
745;2214
746;2215
745;2216
745;2217
746;2218
745;2219
746;2220
746;2221
745;2222
746;2223
745;2224
745;2225
745;2226
745;2227
745;2228
745;2229
745;2230
746;2231
745;2232
745;2233
745;2234
745;2235
745;2236
745;2237
745;2238
745;2239
745;2240
745;2241
745;2242
745;2243
745;2244
745;2245
745;2246
745;2247
745;2248
745;2249
745;2250
745;2251
745;2252
745;2253
745;2254
745;2255
745;2256
745;2257
745;2258
745;2259
745;2260
745;2261
745;2262
745;2263
745;2264
745;2265
745;2266
745;2267
745;2268
745;2269
745;2270
745;2271
745;2272
745;2273
745;2274
745;2275
745;2276
745;2277
745;2278
745;2279
745;2280
745;2281
745;2282
745;2283
745;2284
745;2285
745;2286
745;2287
745;2288
745;2289
745;2290
745;2291
745;2292
745;2293
745;2294
745;2295
745;2296
745;2297
745;2298
745;2299
745;2300
745;2301
745;2302
745;2303
745;2304
745;2305
745;2306
745;2307
745;2308
744;2309
745;2310
745;2311
745;2312
745;2313
745;2314
745;2315
745;2316
745;2317
745;2318
745;2319
745;2320
745;2321
745;2322
745;2323
745;2324
745;2325
745;2326
745;2327
745;2328
745;2329
745;2330
745;2331
745;2332
745;2333
745;2334
745;2335
745;2336
745;2337
745;2338
745;2339
745;2340
745;2341
745;2342
745;2343
745;2344
745;2345
745;2346
745;2347
745;2348
745;2349
745;2350
745;2351
745;2352
745;2353
745;2354
745;2355
745;2356
745;2357
745;2358
745;2359
745;2360
745;2361
745;2362
745;2363
745;2364
745;2365
745;2366
745;2367
745;2368
745;2369
745;2370
745;2371
745;2372
745;2373
745;2374
745;2375
745;2376
745;2377
745;2378
745;2379
745;2380
745;2381
745;2382
745;2383
745;2384
745;2385
745;2386
745;2387
745;2388
745;2389
745;2390
746;2391
745;2392
745;2393
745;2394
745;2395
745;2396
745;2397
745;2398
745;2399
745;2400
745;2401
745;2402
745;2403
746;2404
745;2405
745;2406
745;2407
745;2408
745;2409
745;2410
745;2411
745;2412
745;2413
745;2414
745;2415
745;2416
745;2417
745;2418
745;2419
745;2420
745;2421
745;2422
745;2423
745;2424
745;2425
745;2426
745;2427
745;2428
745;2429
745;2430
745;2431
745;2432
745;2433
745;2434
745;2435
745;2436
745;2437
745;2438
745;2439
745;2440
745;2441
745;2442
745;2443
746;2444
745;2445
746;2446
745;2447
745;2448
745;2449
746;2450
746;2451
745;2452
746;2453
746;2454
746;2455
745;2456
746;2457
745;2458
746;2459
745;2460
745;2461
745;2462
746;2463
745;2464
745;2465
746;2466
745;2467
745;2468
745;2469
745;2470
746;2471
745;2472
745;2473
745;2474
746;2475
745;2476
745;2477
745;2478
745;2479
746;2480
745;2481
745;2482
745;2483
745;2484
746;2485
746;2486
745;2487
745;2488
746;2489
745;2490
746;2491
745;2492
745;2493
746;2494
746;2495
746;2496
746;2497
746;2498
746;2499
746;2500
746;2501
746;2502
746;2503
746;2504
746;2505
746;2506
746;2507
746;2508
746;2509
746;2510
746;2511
746;2512
746;2513
746;2514
746;2515
746;2516
746;2517
746;2518
746;2519
746;2520
746;2521
746;2522
746;2523
746;2524
746;2525
746;2526
746;2527
746;2528
746;2529
746;2530
746;2531
746;2532
746;2533
746;2534
746;2535
746;2536
746;2537
746;2538
746;2539
746;2540
746;2541
746;2542
746;2543
746;2544
746;2545
746;2546
746;2547
746;2548
746;2549
746;2550
746;2551
746;2552
746;2553
746;2554
746;2555
746;2556
746;2557
746;2558
746;2559
746;2560
746;2561
746;2562
746;2563
746;2564
746;2565
746;2566
746;2567
746;2568
746;2569
746;2570
746;2571
746;2572
746;2573
746;2574
746;2575
746;2576
746;2577
746;2578
746;2579
746;2580
746;2581
746;2582
746;2583
746;2584
746;2585
746;2586
746;2587
746;2588
746;2589
746;2590
746;2591
746;2592
746;2593
746;2594
746;2595
746;2596
746;2597
746;2598
746;2599
746;2600
746;2601
746;2602
746;2603
746;2604
746;2605
746;2606
746;2607
746;2608
746;2609
747;2610
746;2611
747;2612
746;2613
746;2614
747;2615
746;2616
747;2617
746;2618
747;2619
747;2620
747;2621
746;2622
746;2623
746;2624
746;2625
746;2626
747;2627
746;2628
746;2629
747;2630
746;2631
746;2632
746;2633
746;2634
746;2635
746;2636
746;2637
746;2638
746;2639
746;2640
746;2641
746;2642
746;2643
746;2644
746;2645
746;2646
746;2647
746;2648
746;2649
746;2650
746;2651
746;2652
746;2653
746;2654
746;2655
746;2656
746;2657
746;2658
746;2659
746;2660
746;2661
747;2662
747;2663
746;2664
746;2665
746;2666
747;2667
747;2668
746;2669
747;2670
747;2671
747;2672
747;2673
747;2674
747;2675
747;2676
747;2677
747;2678
747;2679
747;2680
747;2681
747;2682
747;2683
747;2684
747;2685
747;2686
747;2687
747;2688
747;2689
747;2690
747;2691
747;2692
747;2693
747;2694
746;2695
747;2696
746;2697
746;2698
746;2699
747;2700
747;2701
747;2702
746;2703
746;2704
747;2705
747;2706
747;2707
747;2708
746;2709
747;2710
747;2711
746;2712
746;2713
747;2714
746;2715
746;2716
746;2717
747;2718
747;2719
747;2720
747;2721
747;2722
747;2723
747;2724
747;2725
747;2726
747;2727
746;2728
747;2729
747;2730
747;2731
747;2732
747;2733
747;2734
747;2735
747;2736
747;2737
747;2738
747;2739
747;2740
747;2741
747;2742
747;2743
747;2744
747;2745
747;2746
747;2747
747;2748
747;2749
747;2750
746;2751
746;2752
746;2753
746;2754
747;2755
747;2756
747;2757
746;2758
746;2759
746;2760
746;2761
746;2762
747;2763
746;2764
746;2765
746;2766
746;2767
746;2768
746;2769
746;2770
746;2771
746;2772
746;2773
746;2774
746;2775
746;2776
746;2777
746;2778
746;2779
746;2780
747;2781
747;2782
746;2783
747;2784
747;2785
747;2786
746;2787
746;2788
747;2789
746;2790
747;2791
746;2792
746;2793
746;2794
747;2795
746;2796
747;2797
747;2798
746;2799
746;2800
746;2801
746;2802
746;2803
746;2804
746;2805
746;2806
746;2807
746;2808
746;2809
746;2810
746;2811
746;2812
746;2813
746;2814
746;2815
746;2816
746;2817
746;2818
746;2819
746;2820
746;2821
746;2822
746;2823
746;2824
746;2825
746;2826
746;2827
746;2828
746;2829
746;2830
746;2831
746;2832
746;2833
746;2834
746;2835
746;2836
746;2837
747;2838
746;2839
746;2840
746;2841
746;2842
746;2843
746;2844
746;2845
747;2846
746;2847
746;2848
746;2849
746;2850
747;2851
746;2852
747;2853
746;2854
746;2855
746;2856
746;2857
746;2858
746;2859
746;2860
746;2861
746;2862
746;2863
746;2864
746;2865
746;2866
746;2867
746;2868
746;2869
746;2870
746;2871
746;2872
746;2873
746;2874
746;2875
746;2876
746;2877
746;2878
746;2879
746;2880
746;2881
746;2882
746;2883
746;2884
746;2885
746;2886
746;2887
746;2888
746;2889
746;2890
746;2891
746;2892
746;2893
746;2894
746;2895
746;2896
746;2897
746;2898
746;2899
746;2900
746;2901
746;2902
746;2903
746;2904
746;2905
746;2906
746;2907
746;2908
746;2909
746;2910
746;2911
746;2912
746;2913
746;2914
746;2915
746;2916
746;2917
746;2918
746;2919
746;2920
746;2921
746;2922
746;2923
746;2924
746;2925
746;2926
746;2927
746;2928
746;2929
746;2930
746;2931
746;2932
746;2933
746;2934
746;2935
746;2936
746;2937
746;2938
746;2939
746;2940
746;2941
746;2942
746;2943
746;2944
746;2945
746;2946
746;2947
746;2948
746;2949
746;2950
746;2951
746;2952
746;2953
746;2954
746;2955
746;2956
746;2957
746;2958
746;2959
746;2960
746;2961
746;2962
746;2963
746;2964
746;2965
746;2966
746;2967
746;2968
746;2969
746;2970
746;2971
746;2972
746;2973
746;2974
746;2975
746;2976
746;2977
746;2978
746;2979
746;2980
746;2981
746;2982
746;2983
746;2984
745;2985
746;2986
746;2987
746;2988
746;2989
746;2990
746;2991
746;2992
746;2993
746;2994
746;2995
746;2996
746;2997
746;2998
746;2999
746;3000
746;3001
746;3002
746;3003
746;3004
746;3005
746;3006
746;3007
746;3008
746;3009
746;3010
746;3011
746;3012
746;3013
746;3014
746;3015
746;3016
746;3017
746;3018
746;3019
746;3020
746;3021
746;3022
746;3023
746;3024
746;3025
746;3026
746;3027
746;3028
746;3029
746;3030
746;3031
746;3032
746;3033
746;3034
746;3035
746;3036
746;3037
746;3038
746;3039
746;3040
746;3041
746;3042
746;3043
746;3044
746;3045
746;3046
746;3047
746;3048
746;3049
746;3050
746;3051
746;3052
746;3053
746;3054
747;3055
746;3056
746;3057
746;3058
747;3059
746;3060
747;3061
746;3062
746;3063
747;3064
747;3065
747;3066
747;3067
746;3068
747;3069
747;3070
747;3071
747;3072
747;3073
747;3074
747;3075
747;3076
747;3077
747;3078
747;3079
747;3080
747;3081
747;3082
747;3083
747;3084
747;3085
747;3086
747;3087
747;3088
747;3089
747;3090
747;3091
747;3092
747;3093
747;3094
747;3095
747;3096
747;3097
747;3098
747;3099
747;3100
747;3101
747;3102
747;3103
747;3104
747;3105
747;3106
747;3107
747;3108
746;3109
747;3110
747;3111
747;3112
747;3113
747;3114
747;3115
747;3116
747;3117
747;3118
747;3119
747;3120
747;3121
747;3122
747;3123
747;3124
747;3125
747;3126
747;3127
747;3128
747;3129
747;3130
747;3131
747;3132
747;3133
747;3134
747;3135
747;3136
747;3137
747;3138
747;3139
747;3140
747;3141
747;3142
747;3143
747;3144
747;3145
747;3146
747;3147
747;3148
747;3149
747;3150
747;3151
747;3152
747;3153
747;3154
747;3155
747;3156
747;3157
747;3158
747;3159
747;3160
747;3161
747;3162
747;3163
747;3164
747;3165
747;3166
747;3167
747;3168
747;3169
747;3170
747;3171
747;3172
747;3173
747;3174
747;3175
747;3176
747;3177
747;3178
747;3179
747;3180
747;3181
747;3182
747;3183
747;3184
747;3185
747;3186
747;3187
747;3188
747;3189
747;3190
747;3191
747;3192
747;3193
747;3194
747;3195
747;3196
747;3197
747;3198
747;3199
747;3200
747;3201
747;3202
747;3203
747;3204
747;3205
747;3206
747;3207
747;3208
747;3209
747;3210
747;3211
747;3212
747;3213
747;3214
747;3215
747;3216
747;3217
747;3218
747;3219
747;3220
747;3221
747;3222
747;3223
747;3224
747;3225
747;3226
747;3227
747;3228
747;3229
747;3230
747;3231
747;3232
747;3233
747;3234
747;3235
748;3236
747;3237
748;3238
748;3239
747;3240
748;3241
748;3242
748;3243
747;3244
748;3245
748;3246
747;3247
748;3248
747;3249
747;3250
748;3251
748;3252
748;3253
748;3254
747;3255
748;3256
748;3257
747;3258
748;3259
747;3260
747;3261
747;3262
748;3263
747;3264
747;3265
748;3266
747;3267
748;3268
747;3269
748;3270
747;3271
748;3272
747;3273
747;3274
748;3275
747;3276
747;3277
748;3278
748;3279
748;3280
747;3281
748;3282
747;3283
748;3284
747;3285
747;3286
748;3287
748;3288
748;3289
748;3290
748;3291
748;3292
748;3293
748;3294
748;3295
748;3296
748;3297
748;3298
748;3299
748;3300
748;3301
748;3302
748;3303
748;3304
748;3305
748;3306
748;3307
748;3308
748;3309
748;3310
748;3311
748;3312
747;3313
748;3314
748;3315
748;3316
748;3317
748;3318
748;3319
748;3320
748;3321
748;3322
748;3323
748;3324
748;3325
748;3326
748;3327
748;3328
748;3329
748;3330
748;3331
748;3332
748;3333
747;3334
748;3335
748;3336
748;3337
747;3338
748;3339
747;3340
748;3341
748;3342
748;3343
748;3344
748;3345
748;3346
748;3347
748;3348
748;3349
748;3350
748;3351
748;3352
748;3353
748;3354
748;3355
748;3356
748;3357
748;3358
748;3359
748;3360
748;3361
748;3362
748;3363
748;3364
748;3365
748;3366
748;3367
748;3368
748;3369
748;3370
748;3371
748;3372
748;3373
748;3374
748;3375
748;3376
748;3377
748;3378
748;3379
748;3380
748;3381
748;3382
748;3383
748;3384
748;3385
748;3386
748;3387
748;3388
748;3389
748;3390
748;3391
748;3392
748;3393
748;3394
748;3395
748;3396
748;3397
748;3398
748;3399
748;3400
748;3401
748;3402
748;3403
748;3404
748;3405
748;3406
748;3407
748;3408
748;3409
748;3410
748;3411
748;3412
748;3413
748;3414
748;3415
748;3416
748;3417
748;3418
748;3419
748;3420
748;3421
748;3422
748;3423
748;3424
748;3425
748;3426
748;3427
748;3428
748;3429
748;3430
748;3431
748;3432
748;3433
748;3434
748;3435
748;3436
748;3437
748;3438
748;3439
748;3440
748;3441
748;3442
748;3443
748;3444
748;3445
748;3446
748;3447
748;3448
748;3449
748;3450
748;3451
748;3452
748;3453
748;3454
748;3455
748;3456
748;3457
748;3458
748;3459
748;3460
748;3461
748;3462
748;3463
748;3464
748;3465
748;3466
748;3467
748;3468
748;3469
748;3470
748;3471
748;3472
748;3473
748;3474
748;3475
748;3476
748;3477
748;3478
748;3479
748;3480
748;3481
748;3482
748;3483
748;3484
748;3485
748;3486
748;3487
748;3488
748;3489
748;3490
748;3491
748;3492
748;3493
748;3494
748;3495
748;3496
748;3497
748;3498
748;3499
748;3500
748;3501
748;3502
748;3503
748;3504
748;3505
748;3506
748;3507
748;3508
748;3509
748;3510
748;3511
748;3512
748;3513
748;3514
748;3515
748;3516
748;3517
748;3518
748;3519
748;3520
748;3521
748;3522
748;3523
748;3524
748;3525
748;3526
748;3527
748;3528
748;3529
748;3530
748;3531
748;3532
748;3533
748;3534
748;3535
748;3536
748;3537
748;3538
748;3539
748;3540
748;3541
748;3542
748;3543
748;3544
748;3545
748;3546
748;3547
748;3548
748;3549
748;3550
748;3551
748;3552
748;3553
748;3554
748;3555
748;3556
748;3557
748;3558
748;3559
748;3560
748;3561
748;3562
748;3563
748;3564
748;3565
748;3566
748;3567
748;3568
748;3569
748;3570
748;3571
749;3572
748;3573
748;3574
748;3575
749;3576
749;3577
749;3578
748;3579
749;3580
749;3581
749;3582
749;3583
748;3584
749;3585
748;3586
748;3587
749;3588
749;3589
749;3590
749;3591
749;3592
749;3593
748;3594
748;3595
748;3596
749;3597
748;3598
748;3599
748;3600
748;3601
748;3602
748;3603
748;3604
748;3605
748;3606
748;3607
748;3608
748;3609
748;3610
748;3611
748;3612
748;3613
748;3614
748;3615
748;3616
748;3617
748;3618
748;3619
748;3620
748;3621
748;3622
749;3623
748;3624
748;3625
748;3626
748;3627
748;3628
748;3629
748;3630
748;3631
748;3632
748;3633
748;3634
749;3635
749;3636
748;3637
749;3638
749;3639
748;3640
748;3641
749;3642
749;3643
748;3644
749;3645
748;3646
749;3647
749;3648
748;3649
749;3650
748;3651
749;3652
749;3653
748;3654
748;3655
748;3656
748;3657
748;3658
748;3659
748;3660
748;3661
748;3662
748;3663
748;3664
748;3665
748;3666
748;3667
748;3668
748;3669
748;3670
748;3671
748;3672
748;3673
748;3674
748;3675
749;3676
748;3677
749;3678
748;3679
748;3680
748;3681
748;3682
749;3683
749;3684
749;3685
748;3686
749;3687
749;3688
749;3689
749;3690
749;3691
749;3692
749;3693
749;3694
749;3695
749;3696
749;3697
749;3698
749;3699
749;3700
749;3701
749;3702
749;3703
749;3704
749;3705
749;3706
749;3707
749;3708
749;3709
749;3710
749;3711
749;3712
749;3713
749;3714
749;3715
749;3716
749;3717
749;3718
749;3719
749;3720
749;3721
749;3722
749;3723
749;3724
749;3725
749;3726
749;3727
749;3728
748;3729
749;3730
749;3731
749;3732
748;3733
749;3734
748;3735
749;3736
749;3737
749;3738
749;3739
749;3740
749;3741
749;3742
749;3743
749;3744
749;3745
749;3746
749;3747
749;3748
749;3749
749;3750
749;3751
749;3752
749;3753
749;3754
749;3755
749;3756
749;3757
749;3758
749;3759
749;3760
749;3761
749;3762
749;3763
749;3764
748;3765
749;3766
748;3767
748;3768
749;3769
748;3770
749;3771
748;3772
748;3773
748;3774
748;3775
748;3776
748;3777
748;3778
748;3779
748;3780
748;3781
749;3782
748;3783
748;3784
748;3785
748;3786
748;3787
748;3788
748;3789
748;3790
748;3791
748;3792
748;3793
748;3794
748;3795
748;3796
748;3797
748;3798
748;3799
748;3800
748;3801
748;3802
748;3803
748;3804
748;3805
748;3806
748;3807
748;3808
748;3809
748;3810
748;3811
748;3812
748;3813
748;3814
748;3815
748;3816
748;3817
748;3818
748;3819
748;3820
748;3821
748;3822
748;3823
748;3824
748;3825
748;3826
748;3827
748;3828
748;3829
748;3830
748;3831
748;3832
748;3833
748;3834
748;3835
748;3836
748;3837
748;3838
748;3839
748;3840
748;3841
748;3842
748;3843
748;3844
748;3845
748;3846
748;3847
748;3848
748;3849
748;3850
748;3851
748;3852
748;3853
748;3854
748;3855
748;3856
748;3857
748;3858
748;3859
748;3860
748;3861
748;3862
748;3863
748;3864
748;3865
748;3866
748;3867
748;3868
748;3869
748;3870
748;3871
748;3872
748;3873
748;3874
748;3875
748;3876
748;3877
748;3878
748;3879
748;3880
748;3881
748;3882
748;3883
748;3884
748;3885
748;3886
748;3887
748;3888
748;3889
748;3890
748;3891
748;3892
748;3893
748;3894
748;3895
748;3896
748;3897
748;3898
748;3899
748;3900
748;3901
748;3902
748;3903
748;3904
748;3905
748;3906
748;3907
748;3908
748;3909
748;3910
748;3911
748;3912
748;3913
748;3914
748;3915
748;3916
748;3917
748;3918
748;3919
748;3920
748;3921
748;3922
748;3923
748;3924
748;3925
748;3926
748;3927
748;3928
748;3929
748;3930
748;3931
748;3932
748;3933
748;3934
748;3935
748;3936
748;3937
748;3938
748;3939
748;3940
748;3941
748;3942
748;3943
748;3944
748;3945
748;3946
748;3947
747;3948
748;3949
748;3950
748;3951
748;3952
748;3953
748;3954
748;3955
748;3956
748;3957
748;3958
748;3959
748;3960
748;3961
748;3962
748;3963
748;3964
748;3965
748;3966
748;3967
748;3968
748;3969
748;3970
748;3971
748;3972
748;3973
748;3974
748;3975
748;3976
748;3977
748;3978
748;3979
748;3980
748;3981
748;3982
748;3983
748;3984
748;3985
748;3986
748;3987
748;3988
748;3989
748;3990
748;3991
748;3992
748;3993
748;3994
748;3995
748;3996
748;3997
748;3998
748;3999
748;4000
748;4001
748;4002
748;4003
748;4004
748;4005
748;4006
748;4007
748;4008
748;4009
748;4010
748;4011
748;4012
748;4013
748;4014
748;4015
748;4016
748;4017
748;4018
748;4019
748;4020
748;4021
748;4022
748;4023
748;4024
748;4025
748;4026
748;4027
748;4028
748;4029
748;4030
748;4031
748;4032
748;4033
748;4034
748;4035
748;4036
748;4037
748;4038
748;4039
748;4040
748;4041
748;4042
748;4043
748;4044
748;4045
748;4046
748;4047
748;4048
748;4049
748;4050
748;4051
748;4052
748;4053
748;4054
748;4055
748;4056
748;4057
748;4058
748;4059
748;4060
748;4061
748;4062
748;4063
748;4064
748;4065
748;4066
748;4067
748;4068
748;4069
748;4070
748;4071
748;4072
748;4073
748;4074
748;4075
748;4076
748;4077
748;4078
748;4079
748;4080
748;4081
748;4082
748;4083
748;4084
748;4085
748;4086
748;4087
748;4088
748;4089
748;4090
748;4091
748;4092
748;4093
748;4094
748;4095
748;4096
748;4097
748;4098
748;4099
748;4100
748;4101
748;4102
748;4103
748;4104
748;4105
748;4106
748;4107
748;4108
748;4109
748;4110
748;4111
748;4112
748;4113
748;4114
748;4115
748;4116
748;4117
748;4118
748;4119
748;4120
748;4121
748;4122
748;4123
748;4124
748;4125
748;4126
748;4127
748;4128
748;4129
748;4130
748;4131
748;4132
748;4133
748;4134
748;4135
748;4136
748;4137
748;4138
748;4139
748;4140
748;4141
748;4142
748;4143
748;4144
748;4145
748;4146
748;4147
748;4148
748;4149
748;4150
748;4151
748;4152
748;4153
748;4154
748;4155
748;4156
748;4157
748;4158
748;4159
748;4160
748;4161
748;4162
748;4163
748;4164
748;4165
748;4166
748;4167
748;4168
748;4169
748;4170
748;4171
748;4172
747;4173
748;4174
747;4175
747;4176
747;4177
748;4178
748;4179
748;4180
748;4181
748;4182
748;4183
747;4184
748;4185
748;4186
747;4187
747;4188
747;4189
748;4190
747;4191
748;4192
748;4193
747;4194
748;4195
748;4196
748;4197
748;4198
747;4199
748;4200
748;4201
748;4202
748;4203
748;4204
748;4205
748;4206
748;4207
747;4208
747;4209
748;4210
748;4211
748;4212
747;4213
747;4214
747;4215
747;4216
748;4217
748;4218
748;4219
747;4220
747;4221
747;4222
747;4223
747;4224
747;4225
747;4226
748;4227
747;4228
747;4229
747;4230
747;4231
747;4232
747;4233
747;4234
747;4235
747;4236
747;4237
747;4238
747;4239
747;4240
747;4241
747;4242
747;4243
747;4244
747;4245
747;4246
747;4247
747;4248
747;4249
747;4250
748;4251
747;4252
747;4253
747;4254
747;4255
747;4256
748;4257
747;4258
747;4259
748;4260
747;4261
748;4262
747;4263
748;4264
747;4265
747;4266
748;4267
747;4268
747;4269
747;4270
747;4271
747;4272
747;4273
747;4274
747;4275
747;4276
747;4277
747;4278
747;4279
747;4280
747;4281
747;4282
747;4283
747;4284
747;4285
747;4286
747;4287
747;4288
747;4289
747;4290
747;4291
747;4292
747;4293
747;4294
747;4295
747;4296
747;4297
747;4298
747;4299
747;4300
747;4301
747;4302
747;4303
747;4304
747;4305
747;4306
747;4307
747;4308
748;4309
747;4310
748;4311
748;4312
748;4313
747;4314
748;4315
747;4316
747;4317
748;4318
748;4319
747;4320
747;4321
748;4322
748;4323
747;4324
747;4325
747;4326
747;4327
748;4328
748;4329
747;4330
747;4331
747;4332
747;4333
747;4334
747;4335
747;4336
747;4337
747;4338
747;4339
747;4340
747;4341
747;4342
747;4343
747;4344
747;4345
747;4346
747;4347
747;4348
747;4349
747;4350
747;4351
747;4352
747;4353
747;4354
747;4355
747;4356
747;4357
747;4358
747;4359
747;4360
747;4361
747;4362
747;4363
747;4364
747;4365
747;4366
747;4367
747;4368
748;4369
747;4370
747;4371
747;4372
747;4373
747;4374
747;4375
747;4376
748;4377
748;4378
748;4379
748;4380
747;4381
748;4382
748;4383
747;4384
747;4385
747;4386
747;4387
747;4388
747;4389
747;4390
747;4391
747;4392
747;4393
747;4394
747;4395
747;4396
747;4397
747;4398
747;4399
747;4400
747;4401
747;4402
747;4403
747;4404
747;4405
747;4406
747;4407
747;4408
747;4409
747;4410
748;4411
747;4412
747;4413
747;4414
747;4415
747;4416
747;4417
747;4418
747;4419
747;4420
747;4421
748;4422
747;4423
747;4424
748;4425
748;4426
748;4427
748;4428
748;4429
748;4430
748;4431
748;4432
748;4433
748;4434
747;4435
747;4436
747;4437
748;4438
747;4439
748;4440
747;4441
747;4442
748;4443
747;4444
747;4445
747;4446
747;4447
747;4448
747;4449
747;4450
747;4451
748;4452
747;4453
747;4454
747;4455
747;4456
747;4457
747;4458
747;4459
747;4460
747;4461
747;4462
747;4463
747;4464
747;4465
747;4466
747;4467
747;4468
747;4469
747;4470
747;4471
747;4472
747;4473
747;4474
747;4475
747;4476
748;4477
747;4478
748;4479
748;4480
747;4481
748;4482
748;4483
748;4484
747;4485
747;4486
747;4487
747;4488
747;4489
747;4490
748;4491
748;4492
748;4493
747;4494
747;4495
748;4496
747;4497
747;4498
747;4499
747;4500
747;4501
747;4502
747;4503
747;4504
747;4505
747;4506
747;4507
747;4508
747;4509
747;4510
747;4511
747;4512
747;4513
747;4514
747;4515
747;4516
747;4517
747;4518
747;4519
747;4520
747;4521
747;4522
747;4523
747;4524
747;4525
747;4526
747;4527
747;4528
747;4529
747;4530
747;4531
747;4532
747;4533
747;4534
747;4535
747;4536
747;4537
747;4538
747;4539
748;4540
747;4541
747;4542
747;4543
747;4544
747;4545
747;4546
747;4547
747;4548
747;4549
747;4550
747;4551
747;4552
747;4553
747;4554
747;4555
747;4556
747;4557
747;4558
747;4559
747;4560
747;4561
747;4562
747;4563
747;4564
747;4565
747;4566
747;4567
747;4568
747;4569
747;4570
747;4571
747;4572
747;4573
747;4574
747;4575
747;4576
747;4577
747;4578
747;4579
747;4580
747;4581
746;4582
747;4583
747;4584
747;4585
747;4586
747;4587
747;4588
747;4589
747;4590
747;4591
747;4592
747;4593
747;4594
747;4595
747;4596
747;4597
747;4598
747;4599
747;4600
747;4601
747;4602
747;4603
747;4604
747;4605
747;4606
747;4607
747;4608
747;4609
747;4610
747;4611
747;4612
747;4613
747;4614
747;4615
746;4616
747;4617
747;4618
747;4619
747;4620
747;4621
747;4622
747;4623
747;4624
747;4625
747;4626
747;4627
747;4628
747;4629
747;4630
747;4631
746;4632
747;4633
747;4634
747;4635
747;4636
747;4637
747;4638
747;4639
746;4640
747;4641
747;4642
747;4643
747;4644
747;4645
747;4646
747;4647
747;4648
747;4649
747;4650
747;4651
747;4652
747;4653
747;4654
747;4655
747;4656
747;4657
747;4658
747;4659
747;4660
747;4661
747;4662
747;4663
747;4664
747;4665
747;4666
747;4667
747;4668
747;4669
747;4670
747;4671
747;4672
747;4673
747;4674
747;4675
747;4676
747;4677
747;4678
747;4679
747;4680
747;4681
747;4682
747;4683
747;4684
747;4685
747;4686
747;4687
747;4688
747;4689
747;4690
747;4691
747;4692
747;4693
747;4694
747;4695
747;4696
747;4697
747;4698
747;4699
747;4700
747;4701
747;4702
747;4703
747;4704
747;4705
747;4706
747;4707
747;4708
747;4709
747;4710
747;4711
747;4712
747;4713
747;4714
747;4715
747;4716
747;4717
747;4718
747;4719
747;4720
747;4721
747;4722
747;4723
747;4724
747;4725
747;4726
747;4727
747;4728
747;4729
747;4730
747;4731
747;4732
747;4733
747;4734
747;4735
747;4736
747;4737
747;4738
747;4739
747;4740
747;4741
747;4742
747;4743
747;4744
747;4745
747;4746
747;4747
747;4748
747;4749
747;4750
747;4751
746;4752
747;4753
747;4754
747;4755
746;4756
747;4757
747;4758
747;4759
747;4760
747;4761
747;4762
747;4763
747;4764
747;4765
747;4766
747;4767
747;4768
747;4769
747;4770
747;4771
747;4772
747;4773
747;4774
747;4775
747;4776
747;4777
747;4778
747;4779
747;4780
747;4781
747;4782
747;4783
747;4784
747;4785
747;4786
747;4787
747;4788
747;4789
747;4790
747;4791
747;4792
747;4793
747;4794
747;4795
747;4796
747;4797
747;4798
747;4799
747;4800
747;4801
747;4802
747;4803
747;4804
747;4805
747;4806
747;4807
747;4808
747;4809
747;4810
747;4811
747;4812
747;4813
747;4814
747;4815
747;4816
747;4817
747;4818
747;4819
747;4820
747;4821
747;4822
747;4823
747;4824
747;4825
747;4826
747;4827
747;4828
747;4829
747;4830
747;4831
747;4832
747;4833
747;4834
747;4835
747;4836
747;4837
747;4838
747;4839
747;4840
747;4841
747;4842
747;4843
747;4844
747;4845
747;4846
747;4847
747;4848
746;4849
747;4850
747;4851
747;4852
747;4853
747;4854
746;4855
747;4856
747;4857
746;4858
747;4859
747;4860
747;4861
747;4862
747;4863
746;4864
747;4865
746;4866
747;4867
746;4868
747;4869
747;4870
747;4871
747;4872
747;4873
747;4874
747;4875
747;4876
747;4877
747;4878
747;4879
747;4880
747;4881
747;4882
747;4883
747;4884
747;4885
747;4886
747;4887
747;4888
747;4889
747;4890
747;4891
747;4892
747;4893
747;4894
747;4895
747;4896
747;4897
747;4898
747;4899
747;4900
747;4901
747;4902
747;4903
747;4904
747;4905
747;4906
747;4907
746;4908
747;4909
747;4910
747;4911
747;4912
747;4913
747;4914
747;4915
746;4916
747;4917
747;4918
747;4919
747;4920
747;4921
747;4922
747;4923
747;4924
747;4925
747;4926
747;4927
747;4928
747;4929
747;4930
747;4931
747;4932
747;4933
747;4934
747;4935
747;4936
747;4937
747;4938
747;4939
747;4940
747;4941
747;4942
747;4943
747;4944
747;4945
747;4946
747;4947
747;4948
747;4949
747;4950
747;4951
747;4952
747;4953
747;4954
747;4955
747;4956
747;4957
747;4958
747;4959
747;4960
747;4961
747;4962
747;4963
747;4964
747;4965
747;4966
747;4967
747;4968
747;4969
747;4970
747;4971
747;4972
747;4973
747;4974
747;4975
747;4976
747;4977
747;4978
747;4979
747;4980
747;4981
747;4982
747;4983
747;4984
747;4985
747;4986
747;4987
747;4988
747;4989
747;4990
747;4991
747;4992
747;4993
747;4994
747;4995
747;4996
747;4997
747;4998
747;4999
747;5000
747;5001
747;5002
747;5003
747;5004
747;5005
747;5006
747;5007
747;5008
747;5009
747;5010
747;5011
747;5012
747;5013
747;5014
747;5015
747;5016
747;5017
747;5018
747;5019
747;5020
747;5021
747;5022
747;5023
747;5024
747;5025
747;5026
747;5027
747;5028
747;5029
747;5030
747;5031
747;5032
747;5033
747;5034
747;5035
747;5036
747;5037
747;5038
747;5039
747;5040
747;5041
747;5042
747;5043
747;5044
747;5045
747;5046
747;5047
747;5048
747;5049
747;5050
747;5051
747;5052
747;5053
747;5054
747;5055
747;5056
747;5057
747;5058
747;5059
747;5060
747;5061
747;5062
747;5063
747;5064
747;5065
747;5066
747;5067
747;5068
747;5069
747;5070
747;5071
747;5072
747;5073
747;5074
747;5075
747;5076
747;5077
747;5078
747;5079
747;5080
747;5081
747;5082
747;5083
747;5084
747;5085
747;5086
747;5087
747;5088
747;5089
747;5090
747;5091
747;5092
747;5093
747;5094
747;5095
747;5096
747;5097
747;5098
747;5099
747;5100
747;5101
747;5102
747;5103
747;5104
747;5105
747;5106
747;5107
747;5108
747;5109
747;5110
747;5111
747;5112
747;5113
747;5114
747;5115
747;5116
747;5117
747;5118
747;5119
747;5120
747;5121
747;5122
747;5123
747;5124
747;5125
747;5126
747;5127
747;5128
747;5129
747;5130
747;5131
747;5132
747;5133
747;5134
747;5135
747;5136
747;5137
747;5138
747;5139
747;5140
747;5141
747;5142
747;5143
747;5144
747;5145
747;5146
747;5147
747;5148
747;5149
747;5150
747;5151
747;5152
747;5153
747;5154
747;5155
747;5156
747;5157
747;5158
747;5159
747;5160
747;5161
747;5162
747;5163
747;5164
747;5165
747;5166
748;5167
748;5168
747;5169
747;5170
747;5171
747;5172
747;5173
747;5174
747;5175
748;5176
747;5177
747;5178
747;5179
747;5180
747;5181
747;5182
747;5183
747;5184
747;5185
747;5186
747;5187
747;5188
748;5189
747;5190
747;5191
747;5192
747;5193
747;5194
747;5195
747;5196
747;5197
747;5198
747;5199
747;5200
747;5201
747;5202
747;5203
747;5204
747;5205
747;5206
748;5207
747;5208
748;5209
747;5210
747;5211
748;5212
747;5213
748;5214
748;5215
748;5216
748;5217
747;5218
747;5219
748;5220
748;5221
748;5222
748;5223
748;5224
748;5225
748;5226
748;5227
748;5228
748;5229
748;5230
748;5231
748;5232
747;5233
748;5234
748;5235
748;5236
748;5237
747;5238
747;5239
747;5240
747;5241
747;5242
747;5243
747;5244
747;5245
747;5246
747;5247
747;5248
747;5249
747;5250
747;5251
747;5252
748;5253
747;5254
747;5255
748;5256
747;5257
748;5258
747;5259
748;5260
747;5261
748;5262
747;5263
747;5264
747;5265
747;5266
748;5267
747;5268
747;5269
748;5270
747;5271
748;5272
748;5273
748;5274
748;5275
748;5276
748;5277
748;5278
748;5279
748;5280
748;5281
748;5282
748;5283
748;5284
748;5285
748;5286
748;5287
748;5288
748;5289
748;5290
748;5291
748;5292
748;5293
748;5294
747;5295
748;5296
747;5297
748;5298
747;5299
748;5300
747;5301
747;5302
748;5303
747;5304
748;5305
747;5306
748;5307
747;5308
748;5309
747;5310
747;5311
747;5312
747;5313
747;5314
748;5315
748;5316
748;5317
747;5318
747;5319
747;5320
748;5321
748;5322
748;5323
748;5324
748;5325
748;5326
748;5327
748;5328
748;5329
748;5330
748;5331
748;5332
748;5333
748;5334
748;5335
748;5336
748;5337
748;5338
748;5339
748;5340
748;5341
748;5342
748;5343
748;5344
748;5345
748;5346
748;5347
748;5348
748;5349
748;5350
748;5351
748;5352
748;5353
748;5354
748;5355
748;5356
748;5357
748;5358
747;5359
748;5360
748;5361
748;5362
748;5363
748;5364
748;5365
748;5366
748;5367
748;5368
748;5369
747;5370
748;5371
748;5372
748;5373
748;5374
748;5375
748;5376
748;5377
748;5378
748;5379
748;5380
748;5381
748;5382
748;5383
748;5384
748;5385
748;5386
748;5387
748;5388
748;5389
748;5390
748;5391
748;5392
748;5393
748;5394
748;5395
748;5396
748;5397
748;5398
748;5399
748;5400
748;5401
748;5402
748;5403
748;5404
748;5405
748;5406
748;5407
748;5408
748;5409
747;5410
748;5411
748;5412
748;5413
747;5414
748;5415
748;5416
748;5417
748;5418
748;5419
747;5420
747;5421
747;5422
747;5423
748;5424
748;5425
747;5426
748;5427
748;5428
747;5429
747;5430
747;5431
747;5432
747;5433
748;5434
747;5435
747;5436
747;5437
747;5438
748;5439
747;5440
748;5441
748;5442
747;5443
748;5444
748;5445
748;5446
748;5447
748;5448
748;5449
748;5450
748;5451
748;5452
748;5453
748;5454
747;5455
748;5456
748;5457
748;5458
747;5459
748;5460
748;5461
748;5462
747;5463
748;5464
748;5465
747;5466
747;5467
747;5468
747;5469
747;5470
748;5471
747;5472
748;5473
747;5474
747;5475
747;5476
747;5477
747;5478
747;5479
747;5480
747;5481
747;5482
747;5483
747;5484
747;5485
747;5486
747;5487
747;5488
747;5489
747;5490
748;5491
748;5492
748;5493
747;5494
748;5495
748;5496
748;5497
748;5498
747;5499
748;5500
748;5501
748;5502
748;5503
748;5504
748;5505
748;5506
748;5507
748;5508
748;5509
747;5510
748;5511
747;5512
747;5513
747;5514
747;5515
747;5516
748;5517
747;5518
748;5519
747;5520
747;5521
747;5522
747;5523
747;5524
747;5525
747;5526
747;5527
747;5528
747;5529
747;5530
747;5531
747;5532
747;5533
747;5534
747;5535
747;5536
747;5537
747;5538
747;5539
747;5540
747;5541
747;5542
747;5543
747;5544
747;5545
747;5546
747;5547
747;5548
747;5549
747;5550
747;5551
747;5552
747;5553
747;5554
747;5555
748;5556
747;5557
747;5558
747;5559
747;5560
748;5561
747;5562
747;5563
747;5564
747;5565
747;5566
748;5567
747;5568
747;5569
748;5570
747;5571
747;5572
747;5573
747;5574
747;5575
747;5576
747;5577
747;5578
747;5579
748;5580
747;5581
747;5582
747;5583
747;5584
747;5585
747;5586
747;5587
747;5588
747;5589
747;5590
747;5591
747;5592
747;5593
747;5594
747;5595
747;5596
747;5597
747;5598
747;5599
747;5600
747;5601
747;5602
747;5603
747;5604
747;5605
747;5606
748;5607
747;5608
747;5609
747;5610
748;5611
748;5612
747;5613
747;5614
748;5615
748;5616
747;5617
748;5618
748;5619
748;5620
748;5621
748;5622
748;5623
747;5624
747;5625
748;5626
748;5627
748;5628
748;5629
747;5630
747;5631
747;5632
747;5633
747;5634
747;5635
747;5636
747;5637
747;5638
747;5639
747;5640
747;5641
747;5642
747;5643
747;5644
747;5645
747;5646
747;5647
747;5648
747;5649
747;5650
747;5651
747;5652
747;5653
747;5654
747;5655
747;5656
747;5657
747;5658
747;5659
747;5660
747;5661
747;5662
747;5663
747;5664
747;5665
747;5666
747;5667
747;5668
747;5669
747;5670
747;5671
747;5672
747;5673
747;5674
747;5675
747;5676
747;5677
747;5678
747;5679
747;5680
747;5681
747;5682
747;5683
747;5684
747;5685
747;5686
747;5687
747;5688
747;5689
747;5690
747;5691
747;5692
747;5693
747;5694
747;5695
747;5696
747;5697
747;5698
747;5699
747;5700
747;5701
747;5702
747;5703
747;5704
747;5705
747;5706
747;5707
747;5708
747;5709
747;5710
747;5711
747;5712
747;5713
747;5714
747;5715
747;5716
747;5717
747;5718
747;5719
747;5720
747;5721
747;5722
747;5723
747;5724
747;5725
747;5726
747;5727
747;5728
747;5729
747;5730
748;5731
747;5732
748;5733
747;5734
747;5735
747;5736
747;5737
747;5738
747;5739
747;5740
747;5741
747;5742
747;5743
747;5744
747;5745
747;5746
747;5747
747;5748
747;5749
747;5750
747;5751
747;5752
747;5753
747;5754
747;5755
747;5756
747;5757
747;5758
747;5759
747;5760
747;5761
747;5762
747;5763
747;5764
747;5765
747;5766
748;5767
747;5768
747;5769
747;5770
747;5771
747;5772
747;5773
747;5774
747;5775
747;5776
747;5777
748;5778
748;5779
748;5780
748;5781
748;5782
747;5783
748;5784
747;5785
748;5786
748;5787
748;5788
748;5789
748;5790
748;5791
748;5792
747;5793
747;5794
748;5795
748;5796
748;5797
748;5798
748;5799
748;5800
748;5801
748;5802
748;5803
748;5804
748;5805
747;5806
747;5807
748;5808
748;5809
748;5810
747;5811
747;5812
747;5813
747;5814
747;5815
747;5816
748;5817
747;5818
748;5819
748;5820
748;5821
747;5822
747;5823
747;5824
748;5825
747;5826
748;5827
748;5828
748;5829
747;5830
748;5831
748;5832
748;5833
748;5834
748;5835
748;5836
748;5837
748;5838
748;5839
748;5840
748;5841
748;5842
748;5843
748;5844
748;5845
748;5846
748;5847
748;5848
748;5849
748;5850
748;5851
748;5852
748;5853
748;5854
748;5855
748;5856
748;5857
748;5858
748;5859
748;5860
748;5861
748;5862
748;5863
748;5864
748;5865
748;5866
748;5867
748;5868
748;5869
748;5870
748;5871
748;5872
748;5873
748;5874
748;5875
748;5876
748;5877
748;5878
748;5879
748;5880
748;5881
748;5882
748;5883
748;5884
748;5885
748;5886
748;5887
748;5888
748;5889
748;5890
748;5891
748;5892
748;5893
748;5894
748;5895
748;5896
748;5897
748;5898
748;5899
748;5900
748;5901
748;5902
748;5903
748;5904
748;5905
748;5906
748;5907
748;5908
748;5909
748;5910
748;5911
748;5912
748;5913
748;5914
748;5915
748;5916
748;5917
748;5918
748;5919
748;5920
748;5921
748;5922
748;5923
748;5924
748;5925
748;5926
748;5927
748;5928
748;5929
748;5930
748;5931
748;5932
748;5933
748;5934
748;5935
748;5936
748;5937
748;5938
748;5939
748;5940
748;5941
748;5942
747;5943
748;5944
748;5945
748;5946
748;5947
748;5948
748;5949
748;5950
748;5951
748;5952
748;5953
748;5954
748;5955
748;5956
748;5957
748;5958
748;5959
748;5960
748;5961
748;5962
748;5963
748;5964
748;5965
748;5966
748;5967
748;5968
748;5969
748;5970
748;5971
748;5972
748;5973
748;5974
748;5975
748;5976
748;5977
748;5978
748;5979
748;5980
748;5981
748;5982
748;5983
748;5984
748;5985
748;5986
748;5987
748;5988
748;5989
748;5990
748;5991
748;5992
748;5993
748;5994
748;5995
748;5996
748;5997
748;5998
748;5999
748;6000
748;6001
748;6002
748;6003
748;6004
748;6005
748;6006
748;6007
748;6008
748;6009
748;6010
748;6011
748;6012
748;6013
748;6014
748;6015
748;6016
748;6017
748;6018
748;6019
748;6020
748;6021
748;6022
748;6023
748;6024
748;6025
748;6026
748;6027
748;6028
748;6029
747;6030
748;6031
748;6032
748;6033
748;6034
747;6035
748;6036
747;6037
747;6038
748;6039
748;6040
748;6041
747;6042
748;6043
748;6044
748;6045
748;6046
748;6047
748;6048
748;6049
748;6050
748;6051
748;6052
748;6053
748;6054
747;6055
748;6056
748;6057
748;6058
748;6059
748;6060
748;6061
748;6062
748;6063
748;6064
748;6065
748;6066
748;6067
748;6068
748;6069
748;6070
748;6071
748;6072
748;6073
748;6074
748;6075
748;6076
748;6077
748;6078
748;6079
748;6080
748;6081
748;6082
748;6083
748;6084
748;6085
748;6086
748;6087
748;6088
748;6089
748;6090
748;6091
748;6092
748;6093
748;6094
748;6095
748;6096
748;6097
748;6098
748;6099
748;6100
748;6101
748;6102
748;6103
748;6104
748;6105
748;6106
748;6107
748;6108
748;6109
748;6110
748;6111
748;6112
748;6113
748;6114
748;6115
748;6116
748;6117
748;6118
748;6119
748;6120
748;6121
748;6122
748;6123
748;6124
748;6125
748;6126
748;6127
748;6128
748;6129
748;6130
748;6131
748;6132
748;6133
748;6134
748;6135
748;6136
748;6137
748;6138
748;6139
748;6140
748;6141
748;6142
748;6143
748;6144
748;6145
748;6146
748;6147
748;6148
748;6149
748;6150
748;6151
748;6152
748;6153
748;6154
748;6155
748;6156
748;6157
748;6158
748;6159
748;6160
748;6161
748;6162
748;6163
748;6164
748;6165
748;6166
748;6167
748;6168
748;6169
748;6170
748;6171
748;6172
748;6173
748;6174
748;6175
748;6176
748;6177
748;6178
748;6179
748;6180
748;6181
748;6182
748;6183
748;6184
748;6185
748;6186
748;6187
748;6188
748;6189
748;6190
748;6191
748;6192
748;6193
748;6194
748;6195
747;6196
748;6197
748;6198
748;6199
748;6200
748;6201
747;6202
748;6203
747;6204
747;6205
747;6206
747;6207
747;6208
747;6209
747;6210
747;6211
747;6212
748;6213
747;6214
747;6215
747;6216
747;6217
747;6218
747;6219
747;6220
747;6221
747;6222
747;6223
747;6224
747;6225
747;6226
747;6227
747;6228
747;6229
747;6230
747;6231
747;6232
747;6233
747;6234
748;6235
748;6236
747;6237
748;6238
748;6239
748;6240
748;6241
748;6242
747;6243
747;6244
747;6245
747;6246
747;6247
748;6248
747;6249
747;6250
747;6251
748;6252
747;6253
747;6254
747;6255
747;6256
747;6257
747;6258
747;6259
747;6260
747;6261
747;6262
747;6263
748;6264
747;6265
747;6266
747;6267
747;6268
747;6269
747;6270
747;6271
747;6272
747;6273
747;6274
747;6275
747;6276
747;6277
747;6278
747;6279
747;6280
747;6281
747;6282
748;6283
747;6284
747;6285
747;6286
747;6287
748;6288
747;6289
747;6290
747;6291
747;6292
747;6293
748;6294
747;6295
747;6296
747;6297
748;6298
748;6299
747;6300
748;6301
748;6302
747;6303
747;6304
747;6305
747;6306
747;6307
747;6308
747;6309
747;6310
747;6311
747;6312
747;6313
747;6314
747;6315
747;6316
747;6317
747;6318
747;6319
747;6320
747;6321
747;6322
747;6323
747;6324
747;6325
747;6326
747;6327
747;6328
747;6329
747;6330
747;6331
747;6332
747;6333
747;6334
747;6335
747;6336
747;6337
747;6338
747;6339
747;6340
747;6341
747;6342
747;6343
747;6344
748;6345
747;6346
747;6347
748;6348
747;6349
747;6350
748;6351
748;6352
747;6353
747;6354
747;6355
748;6356
747;6357
748;6358
747;6359
747;6360
747;6361
747;6362
747;6363
747;6364
747;6365
747;6366
747;6367
747;6368
747;6369
747;6370
747;6371
747;6372
747;6373
747;6374
747;6375
747;6376
747;6377
747;6378
747;6379
747;6380
747;6381
747;6382
747;6383
747;6384
747;6385
747;6386
747;6387
747;6388
747;6389
747;6390
747;6391
747;6392
747;6393
747;6394
747;6395
747;6396
747;6397
747;6398
747;6399
747;6400
747;6401
747;6402
747;6403
747;6404
748;6405
747;6406
748;6407
748;6408
748;6409
748;6410
747;6411
748;6412
748;6413
747;6414
747;6415
748;6416
748;6417
748;6418
748;6419
748;6420
748;6421
748;6422
748;6423
748;6424
747;6425
748;6426
748;6427
747;6428
747;6429
748;6430
748;6431
747;6432
747;6433
748;6434
747;6435
747;6436
747;6437
747;6438
747;6439
747;6440
747;6441
747;6442
748;6443
748;6444
748;6445
748;6446
748;6447
747;6448
748;6449
747;6450
747;6451
747;6452
747;6453
747;6454
747;6455
747;6456
747;6457
747;6458
748;6459
748;6460
747;6461
747;6462
747;6463
747;6464
747;6465
748;6466
747;6467
748;6468
748;6469
747;6470
747;6471
748;6472
747;6473
748;6474
748;6475
748;6476
748;6477
748;6478
747;6479
747;6480
748;6481
747;6482
748;6483
748;6484
748;6485
747;6486
748;6487
748;6488
748;6489
747;6490
748;6491
748;6492
748;6493
747;6494
747;6495
747;6496
747;6497
747;6498
748;6499
747;6500
748;6501
748;6502
747;6503
747;6504
748;6505
748;6506
748;6507
748;6508
748;6509
748;6510
748;6511
748;6512
748;6513
748;6514
748;6515
748;6516
748;6517
748;6518
748;6519
748;6520
748;6521
748;6522
748;6523
748;6524
748;6525
748;6526
748;6527
748;6528
748;6529
748;6530
748;6531
748;6532
748;6533
748;6534
748;6535
748;6536
748;6537
748;6538
748;6539
748;6540
748;6541
748;6542
748;6543
748;6544
748;6545
748;6546
748;6547
748;6548
748;6549
748;6550
748;6551
748;6552
748;6553
748;6554
748;6555
748;6556
748;6557
748;6558
748;6559
747;6560
748;6561
748;6562
748;6563
748;6564
748;6565
748;6566
748;6567
748;6568
748;6569
748;6570
748;6571
748;6572
748;6573
748;6574
748;6575
748;6576
748;6577
748;6578
749;6579
748;6580
749;6581
749;6582
749;6583
749;6584
749;6585
749;6586
749;6587
748;6588
748;6589
749;6590
749;6591
749;6592
748;6593
748;6594
748;6595
748;6596
748;6597
748;6598
748;6599
748;6600
748;6601
748;6602
748;6603
748;6604
748;6605
748;6606
748;6607
748;6608
748;6609
748;6610
748;6611
748;6612
748;6613
748;6614
748;6615
748;6616
748;6617
748;6618
748;6619
748;6620
748;6621
748;6622
748;6623
748;6624
748;6625
748;6626
748;6627
748;6628
748;6629
749;6630
749;6631
749;6632
749;6633
749;6634
749;6635
749;6636
749;6637
749;6638
749;6639
749;6640
749;6641
749;6642
749;6643
750;6644
749;6645
749;6646
749;6647
749;6648
749;6649
749;6650
749;6651
749;6652
749;6653
749;6654
749;6655
749;6656
749;6657
749;6658
749;6659
749;6660
749;6661
749;6662
749;6663
749;6664
749;6665
749;6666
749;6667
749;6668
749;6669
749;6670
749;6671
749;6672
749;6673
749;6674
749;6675
749;6676
749;6677
749;6678
749;6679
749;6680
749;6681
749;6682
749;6683
749;6684
749;6685
749;6686
749;6687
749;6688
749;6689
749;6690
749;6691
749;6692
749;6693
749;6694
749;6695
749;6696
749;6697
749;6698
749;6699
749;6700
749;6701
749;6702
749;6703
749;6704
749;6705
749;6706
749;6707
749;6708
749;6709
749;6710
749;6711
749;6712
749;6713
749;6714
749;6715
749;6716
749;6717
749;6718
749;6719
749;6720
749;6721
749;6722
749;6723
749;6724
749;6725
749;6726
749;6727
749;6728
749;6729
749;6730
749;6731
749;6732
748;6733
748;6734
748;6735
748;6736
748;6737
748;6738
748;6739
748;6740
748;6741
748;6742
748;6743
748;6744
748;6745
748;6746
748;6747
748;6748
748;6749
748;6750
748;6751
748;6752
748;6753
748;6754
748;6755
748;6756
748;6757
747;6758
748;6759
748;6760
747;6761
748;6762
747;6763
747;6764
747;6765
747;6766
747;6767
748;6768
748;6769
748;6770
748;6771
748;6772
748;6773
748;6774
748;6775
748;6776
748;6777
748;6778
748;6779
748;6780
748;6781
747;6782
748;6783
748;6784
747;6785
748;6786
748;6787
747;6788
747;6789
747;6790
747;6791
747;6792
747;6793
747;6794
747;6795
747;6796
747;6797
746;6798
746;6799
746;6800
746;6801
746;6802
746;6803
746;6804
746;6805
746;6806
746;6807
746;6808
746;6809
745;6810
745;6811
745;6812
745;6813
745;6814
745;6815
745;6816
745;6817
745;6818
745;6819
745;6820
745;6821
745;6822
745;6823
745;6824
745;6825
745;6826
745;6827
745;6828
745;6829
745;6830
746;6831
746;6832
746;6833
746;6834
746;6835
746;6836
746;6837
746;6838
746;6839
746;6840
746;6841
746;6842
746;6843
746;6844
746;6845
746;6846
747;6847
746;6848
747;6849
747;6850
747;6851
747;6852
747;6853
747;6854
747;6855
747;6856
747;6857
747;6858
747;6859
747;6860
747;6861
747;6862
747;6863
747;6864
747;6865
747;6866
747;6867
747;6868
746;6869
746;6870
746;6871
746;6872
746;6873
746;6874
746;6875
746;6876
746;6877
746;6878
746;6879
746;6880
746;6881
746;6882
746;6883
746;6884
747;6885
747;6886
747;6887
747;6888
747;6889
747;6890
748;6891
748;6892
748;6893
748;6894
748;6895
748;6896
748;6897
748;6898
748;6899
748;6900
748;6901
748;6902
748;6903
748;6904
748;6905
748;6906
748;6907
748;6908
748;6909
748;6910
748;6911
748;6912
748;6913
748;6914
747;6915
748;6916
748;6917
748;6918
748;6919
748;6920
748;6921
748;6922
749;6923
749;6924
749;6925
749;6926
749;6927
749;6928
749;6929
749;6930
750;6931
749;6932
749;6933
749;6934
749;6935
749;6936
750;6937
750;6938
750;6939
750;6940
750;6941
750;6942
750;6943
750;6944
750;6945
750;6946
750;6947
750;6948
750;6949
750;6950
750;6951
750;6952
750;6953
751;6954
750;6955
750;6956
750;6957
750;6958
750;6959
750;6960
750;6961
750;6962
750;6963
750;6964
751;6965
750;6966
751;6967
751;6968
751;6969
750;6970
750;6971
751;6972
750;6973
750;6974
750;6975
750;6976
750;6977
750;6978
750;6979
749;6980
749;6981
750;6982
749;6983
749;6984
749;6985
749;6986
749;6987
748;6988
749;6989
749;6990
748;6991
748;6992
748;6993
749;6994
749;6995
748;6996
748;6997
748;6998
748;6999
749;7000
748;7001
749;7002
749;7003
749;7004
749;7005
749;7006
749;7007
749;7008
749;7009
749;7010
749;7011
749;7012
749;7013
749;7014
749;7015
749;7016
749;7017
749;7018
749;7019
749;7020
749;7021
750;7022
749;7023
749;7024
750;7025
750;7026
750;7027
749;7028
749;7029
749;7030
749;7031
749;7032
749;7033
748;7034
747;7035
747;7036
747;7037
747;7038
747;7039
746;7040
747;7041
746;7042
746;7043
746;7044
745;7045
745;7046
745;7047
745;7048
745;7049
745;7050
745;7051
744;7052
745;7053
744;7054
745;7055
745;7056
745;7057
745;7058
745;7059
745;7060
745;7061
745;7062
745;7063
746;7064
745;7065
745;7066
745;7067
746;7068
746;7069
746;7070
746;7071
747;7072
747;7073
747;7074
747;7075
747;7076
747;7077
747;7078
747;7079
748;7080
747;7081
748;7082
748;7083
748;7084
748;7085
748;7086
748;7087
748;7088
748;7089
747;7090
747;7091
747;7092
747;7093
747;7094
747;7095
747;7096
747;7097
747;7098
747;7099
747;7100
747;7101
747;7102
747;7103
747;7104
747;7105
747;7106
747;7107
747;7108
747;7109
747;7110
747;7111
747;7112
747;7113
747;7114
747;7115
746;7116
746;7117
746;7118
745;7119
745;7120
745;7121
744;7122
744;7123
744;7124
744;7125
744;7126
744;7127
744;7128
744;7129
744;7130
744;7131
744;7132
745;7133
745;7134
745;7135
745;7136
746;7137
746;7138
746;7139
747;7140
747;7141
748;7142
748;7143
748;7144
749;7145
748;7146
749;7147
749;7148
749;7149
749;7150
749;7151
749;7152
750;7153
750;7154
750;7155
750;7156
750;7157
750;7158
750;7159
750;7160
750;7161
750;7162
750;7163
750;7164
750;7165
750;7166
750;7167
750;7168
750;7169
750;7170
750;7171
750;7172
750;7173
750;7174
750;7175
749;7176
749;7177
749;7178
749;7179
749;7180
749;7181
748;7182
748;7183
747;7184
747;7185
746;7186
746;7187
746;7188
746;7189
746;7190
745;7191
745;7192
745;7193
745;7194
745;7195
745;7196
745;7197
745;7198
745;7199
745;7200
745;7201
745;7202
745;7203
745;7204
745;7205
745;7206
746;7207
746;7208
746;7209
746;7210
747;7211
747;7212
747;7213
747;7214
747;7215
748;7216
748;7217
748;7218
747;7219
748;7220
748;7221
747;7222
747;7223
747;7224
747;7225
747;7226
747;7227
747;7228
747;7229
747;7230
747;7231
747;7232
747;7233
747;7234
747;7235
747;7236
747;7237
747;7238
747;7239
747;7240
748;7241
748;7242
748;7243
748;7244
747;7245
747;7246
747;7247
747;7248
747;7249
747;7250
747;7251
747;7252
748;7253
747;7254
747;7255
748;7256
747;7257
748;7258
748;7259
748;7260
748;7261
748;7262
747;7263
747;7264
747;7265
747;7266
747;7267
747;7268
747;7269
747;7270
747;7271
747;7272
748;7273
748;7274
748;7275
748;7276
748;7277
749;7278
749;7279
748;7280
749;7281
748;7282
748;7283
748;7284
748;7285
748;7286
748;7287
748;7288
748;7289
748;7290
748;7291
748;7292
749;7293
749;7294
749;7295
750;7296
750;7297
750;7298
750;7299
751;7300
751;7301
751;7302
751;7303
751;7304
752;7305
752;7306
752;7307
753;7308
753;7309
753;7310
754;7311
754;7312
754;7313
755;7314
755;7315
755;7316
755;7317
755;7318
755;7319
756;7320
756;7321
756;7322
756;7323
755;7324
756;7325
755;7326
755;7327
755;7328
755;7329
754;7330
754;7331
754;7332
754;7333
754;7334
754;7335
753;7336
753;7337
753;7338
752;7339
752;7340
752;7341
751;7342
751;7343
750;7344
746;7345
745;7346
744;7347
742;7348
741;7349
739;7350
737;7351
736;7352
736;7353
735;7354
735;7355
735;7356
735;7357
736;7358
736;7359
737;7360
737;7361
738;7362
739;7363
739;7364
740;7365
741;7366
741;7367
742;7368
742;7369
743;7370
744;7371
744;7372
744;7373
745;7374
745;7375
746;7376
746;7377
747;7378
747;7379
747;7380
748;7381
748;7382
748;7383
748;7384
748;7385
747;7386
747;7387
744;7388
742;7389
741;7390
740;7391
738;7392
737;7393
736;7394
734;7395
734;7396
733;7397
733;7398
732;7399
732;7400
733;7401
733;7402
734;7403
735;7404
736;7405
736;7406
738;7407
739;7408
740;7409
740;7410
741;7411
741;7412
740;7413
740;7414
740;7415
740;7416
740;7417
740;7418
740;7419
740;7420
740;7421
740;7422
741;7423
741;7424
741;7425
743;7426
743;7427
744;7428
744;7429
744;7430
745;7431
746;7432
747;7433
747;7434
748;7435
748;7436
748;7437
748;7438
748;7439
748;7440
748;7441
749;7442
749;7443
749;7444
750;7445
750;7446
750;7447
750;7448
750;7449
750;7450
750;7451
750;7452
751;7453
751;7454
751;7455
751;7456
751;7457
750;7458
751;7459
751;7460
751;7461
750;7462
750;7463
750;7464
750;7465
750;7466
751;7467
751;7468
752;7469
752;7470
752;7471
753;7472
753;7473
753;7474
754;7475
754;7476
754;7477
754;7478
754;7479
754;7480
754;7481
753;7482
752;7483
752;7484
751;7485
752;7486
751;7487
750;7488
751;7489
750;7490
751;7491
751;7492
751;7493
751;7494
752;7495
752;7496
752;7497
753;7498
753;7499
754;7500
754;7501
753;7502
753;7503
752;7504
750;7505
747;7506
746;7507
744;7508
743;7509
741;7510
739;7511
738;7512
735;7513
734;7514
734;7515
733;7516
734;7517
734;7518
735;7519
736;7520
736;7521
737;7522
738;7523
739;7524
740;7525
740;7526
739;7527
738;7528
736;7529
735;7530
734;7531
733;7532
732;7533
732;7534
732;7535
732;7536
732;7537
733;7538
733;7539
734;7540
735;7541
736;7542
737;7543
739;7544
740;7545
741;7546
742;7547
743;7548
744;7549
745;7550
746;7551
747;7552
747;7553
748;7554
748;7555
748;7556
747;7557
746;7558
746;7559
745;7560
745;7561
744;7562
744;7563
744;7564
745;7565
745;7566
745;7567
745;7568
745;7569
744;7570
744;7571
744;7572
743;7573
743;7574
743;7575
743;7576
743;7577
742;7578
741;7579
740;7580
737;7581
736;7582
734;7583
733;7584
732;7585
731;7586
730;7587
730;7588
730;7589
731;7590
732;7591
733;7592
735;7593
737;7594
738;7595
739;7596
740;7597
742;7598
744;7599
746;7600
747;7601
749;7602
750;7603
751;7604
753;7605
754;7606
755;7607
755;7608
756;7609
756;7610
756;7611
755;7612
755;7613
755;7614
755;7615
755;7616
756;7617
755;7618
754;7619
753;7620
752;7621
751;7622
750;7623
749;7624
749;7625
749;7626
749;7627
749;7628
749;7629
749;7630
749;7631
749;7632
749;7633
749;7634
748;7635
745;7636
743;7637
742;7638
740;7639
739;7640
738;7641
737;7642
737;7643
737;7644
737;7645
738;7646
738;7647
739;7648
742;7649
743;7650
744;7651
746;7652
747;7653
749;7654
751;7655
752;7656
752;7657
753;7658
753;7659
754;7660
756;7661
757;7662
757;7663
758;7664
759;7665
760;7666
761;7667
762;7668
763;7669
764;7670
765;7671
765;7672
766;7673
767;7674
768;7675
768;7676
769;7677
769;7678
770;7679
771;7680
771;7681
771;7682
771;7683
771;7684
771;7685
771;7686
771;7687
771;7688
770;7689
770;7690
770;7691
769;7692
769;7693
769;7694
769;7695
769;7696
769;7697
769;7698
769;7699
768;7700
768;7701
767;7702
767;7703
767;7704
765;7705
764;7706
763;7707
762;7708
761;7709
760;7710
758;7711
758;7712
757;7713
757;7714
757;7715
757;7716
757;7717
757;7718
758;7719
758;7720
759;7721
760;7722
762;7723
763;7724
764;7725
764;7726
765;7727
766;7728
767;7729
768;7730
768;7731
768;7732
768;7733
768;7734
768;7735
768;7736
769;7737
769;7738
769;7739
769;7740
769;7741
768;7742
768;7743
768;7744
767;7745
767;7746
767;7747
766;7748
766;7749
765;7750
764;7751
763;7752
762;7753
758;7754
756;7755
754;7756
752;7757
750;7758
748;7759
746;7760
744;7761
743;7762
743;7763
743;7764
743;7765
743;7766
744;7767
744;7768
745;7769
745;7770
746;7771
747;7772
750;7773
751;7774
752;7775
753;7776
754;7777
754;7778
752;7779
751;7780
750;7781
749;7782
749;7783
749;7784
748;7785
748;7786
748;7787
748;7788
749;7789
749;7790
751;7791
751;7792
751;7793
751;7794
750;7795
749;7796
746;7797
744;7798
742;7799
740;7800
738;7801
735;7802
733;7803
729;7804
727;7805
725;7806
724;7807
724;7808
724;7809
725;7810
726;7811
727;7812
728;7813
729;7814
731;7815
733;7816
734;7817
735;7818
737;7819
738;7820
740;7821
743;7822
744;7823
745;7824
747;7825
748;7826
748;7827
749;7828
751;7829
752;7830
753;7831
754;7832
755;7833
756;7834
757;7835
758;7836
758;7837
759;7838
760;7839
760;7840
761;7841
761;7842
762;7843
762;7844
762;7845
762;7846
761;7847
761;7848
761;7849
761;7850
761;7851
760;7852
757;7853
757;7854
756;7855
755;7856
755;7857
754;7858
753;7859
752;7860
751;7861
750;7862
749;7863
748;7864
745;7865
740;7866
737;7867
735;7868
732;7869
730;7870
728;7871
725;7872
725;7873
725;7874
726;7875
726;7876
728;7877
731;7878
732;7879
733;7880
734;7881
736;7882
737;7883
738;7884
741;7885
742;7886
743;7887
745;7888
745;7889
745;7890
741;7891
739;7892
738;7893
736;7894
735;7895
735;7896
735;7897
735;7898
736;7899
737;7900
738;7901
739;7902
742;7903
743;7904
743;7905
744;7906
744;7907
745;7908
745;7909
746;7910
747;7911
748;7912
749;7913
749;7914
751;7915
752;7916
753;7917
753;7918
754;7919
754;7920
755;7921
756;7922
756;7923
757;7924
757;7925
758;7926
758;7927
759;7928
760;7929
761;7930
761;7931
762;7932
762;7933
763;7934
763;7935
764;7936
764;7937
765;7938
766;7939
766;7940
767;7941
768;7942
769;7943
769;7944
770;7945
770;7946
770;7947
769;7948
768;7949
765;7950
762;7951
759;7952
754;7953
751;7954
748;7955
746;7956
745;7957
743;7958
740;7959
740;7960
739;7961
738;7962
738;7963
738;7964
738;7965
736;7966
735;7967
735;7968
735;7969
736;7970
737;7971
739;7972
740;7973
742;7974
743;7975
744;7976
746;7977
749;7978
750;7979
752;7980
754;7981
756;7982
758;7983
760;7984
761;7985
762;7986
763;7987
763;7988
762;7989
761;7990
761;7991
760;7992
760;7993
759;7994
759;7995
759;7996
759;7997
759;7998
759;7999
759;8000
760;8001
759;8002
759;8003
759;8004
760;8005
760;8006
761;8007
761;8008
763;8009
763;8010
764;8011
765;8012
765;8013
766;8014
764;8015
760;8016
756;8017
752;8018
748;8019
745;8020
740;8021
737;8022
736;8023
734;8024
733;8025
733;8026
733;8027
734;8028
735;8029
737;8030
739;8031
742;8032
745;8033
750;8034
752;8035
754;8036
756;8037
757;8038
759;8039
759;8040
759;8041
758;8042
758;8043
757;8044
756;8045
756;8046
755;8047
754;8048
752;8049
751;8050
748;8051
745;8052
744;8053
743;8054
742;8055
742;8056
741;8057
742;8058
742;8059
743;8060
743;8061
744;8062
743;8063
742;8064
742;8065
741;8066
741;8067
741;8068
741;8069
741;8070
742;8071
743;8072
744;8073
744;8074
745;8075
744;8076
741;8077
738;8078
736;8079
735;8080
734;8081
733;8082
733;8083
733;8084
733;8085
734;8086
735;8087
737;8088
739;8089
740;8090
742;8091
743;8092
745;8093
746;8094
750;8095
752;8096
753;8097
755;8098
756;8099
756;8100
757;8101
757;8102
757;8103
757;8104
757;8105
756;8106
755;8107
748;8108
742;8109
737;8110
732;8111
729;8112
725;8113
720;8114
718;8115
718;8116
718;8117
718;8118
719;8119
723;8120
725;8121
728;8122
731;8123
734;8124
738;8125
745;8126
749;8127
752;8128
756;8129
759;8130
762;8131
765;8132
769;8133
771;8134
772;8135
774;8136
775;8137
776;8138
778;8139
779;8140
778;8141
777;8142
776;8143
775;8144
774;8145
773;8146
772;8147
771;8148
771;8149
769;8150
765;8151
762;8152
760;8153
757;8154
755;8155
752;8156
747;8157
744;8158
742;8159
741;8160
740;8161
739;8162
740;8163
741;8164
742;8165
744;8166
745;8167
748;8168
750;8169
755;8170
758;8171
761;8172
764;8173
766;8174
768;8175
771;8176
772;8177
773;8178
773;8179
773;8180
772;8181
771;8182
770;8183
770;8184
770;8185
770;8186
770;8187
770;8188
770;8189
769;8190
770;8191
769;8192
768;8193
767;8194
765;8195
765;8196
764;8197
764;8198
765;8199
765;8200
766;8201
766;8202
766;8203
766;8204
765;8205
764;8206
764;8207
765;8208
764;8209
765;8210
765;8211
764;8212
762;8213
761;8214
759;8215
757;8216
755;8217
753;8218
749;8219
748;8220
747;8221
746;8222
745;8223
745;8224
745;8225
746;8226
747;8227
748;8228
749;8229
750;8230
751;8231
754;8232
755;8233
757;8234
759;8235
760;8236
762;8237
766;8238
768;8239
770;8240
772;8241
774;8242
775;8243
778;8244
779;8245
780;8246
781;8247
782;8248
783;8249
784;8250
784;8251
784;8252
784;8253
783;8254
783;8255
781;8256
780;8257
778;8258
777;8259
775;8260
774;8261
773;8262
771;8263
770;8264
769;8265
768;8266
767;8267
767;8268
767;8269
768;8270
768;8271
769;8272
770;8273
772;8274
774;8275
775;8276
777;8277
778;8278
779;8279
781;8280
783;8281
783;8282
784;8283
784;8284
785;8285
785;8286
786;8287
786;8288
785;8289
784;8290
781;8291
778;8292
774;8293
766;8294
763;8295
760;8296
757;8297
754;8298
753;8299
749;8300
747;8301
746;8302
743;8303
740;8304
738;8305
732;8306
730;8307
729;8308
728;8309
728;8310
728;8311
731;8312
732;8313
733;8314
734;8315
736;8316
737;8317
738;8318
738;8319
738;8320
737;8321
735;8322
735;8323
733;8324
730;8325
730;8326
728;8327
727;8328
727;8329
728;8330
730;8331
731;8332
733;8333
736;8334
738;8335
741;8336
748;8337
751;8338
755;8339
759;8340
763;8341
766;8342
772;8343
774;8344
776;8345
778;8346
779;8347
781;8348
782;8349
784;8350
784;8351
785;8352
785;8353
786;8354
786;8355
787;8356
787;8357
788;8358
789;8359
789;8360
790;8361
790;8362
790;8363
791;8364
791;8365
791;8366
792;8367
793;8368
793;8369
793;8370
794;8371
795;8372
795;8373
796;8374
797;8375
797;8376
797;8377
798;8378
798;8379
798;8380
798;8381
798;8382
798;8383
798;8384
797;8385
796;8386
795;8387
793;8388
791;8389
790;8390
789;8391
785;8392
783;8393
781;8394
780;8395
779;8396
778;8397
777;8398
776;8399
776;8400
776;8401
776;8402
777;8403
777;8404
778;8405
778;8406
779;8407
780;8408
781;8409
782;8410
784;8411
784;8412
784;8413
784;8414
783;8415
782;8416
779;8417
777;8418
775;8419
773;8420
771;8421
769;8422
763;8423
760;8424
756;8425
752;8426
749;8427
745;8428
742;8429
738;8430
736;8431
735;8432
733;8433
733;8434
733;8435
734;8436
735;8437
736;8438
738;8439
741;8440
743;8441
749;8442
752;8443
754;8444
757;8445
760;8446
763;8447
767;8448
769;8449
772;8450
774;8451
775;8452
777;8453
781;8454
783;8455
785;8456
786;8457
787;8458
787;8459
789;8460
789;8461
789;8462
789;8463
789;8464
789;8465
789;8466
789;8467
789;8468
789;8469
789;8470
789;8471
788;8472
786;8473
785;8474
784;8475
783;8476
783;8477
783;8478
783;8479
784;8480
784;8481
784;8482
784;8483
785;8484
785;8485
784;8486
784;8487
784;8488
783;8489
783;8490
782;8491
779;8492
777;8493
774;8494
771;8495
769;8496
766;8497
763;8498
762;8499
761;8500
760;8501
758;8502
758;8503
757;8504
757;8505
757;8506
758;8507
758;8508
758;8509
759;8510
759;8511
759;8512
759;8513
759;8514
759;8515
760;8516
760;8517
760;8518
759;8519
759;8520
759;8521
759;8522
759;8523
759;8524
760;8525
760;8526
761;8527
762;8528
763;8529
763;8530
764;8531
764;8532
765;8533
765;8534
766;8535
767;8536
768;8537
769;8538
770;8539
770;8540
767;8541
765;8542
763;8543
759;8544
756;8545
753;8546
748;8547
746;8548
746;8549
745;8550
745;8551
745;8552
746;8553
746;8554
747;8555
748;8556
750;8557
751;8558
755;8559
757;8560
759;8561
761;8562
762;8563
764;8564
765;8565
768;8566
769;8567
771;8568
771;8569
772;8570
772;8571
773;8572
772;8573
773;8574
773;8575
773;8576
774;8577
775;8578
775;8579
776;8580
777;8581
777;8582
778;8583
779;8584
780;8585
780;8586
782;8587
782;8588
783;8589
783;8590
783;8591
783;8592
784;8593
783;8594
783;8595
783;8596
782;8597
782;8598
782;8599
782;8600
782;8601
782;8602
783;8603
783;8604
783;8605
783;8606
783;8607
784;8608
784;8609
784;8610
784;8611
784;8612
783;8613
783;8614
782;8615
781;8616
781;8617
781;8618
781;8619
781;8620
781;8621
781;8622
781;8623
781;8624
781;8625
781;8626
781;8627
781;8628
781;8629
781;8630
781;8631
782;8632
782;8633
781;8634
781;8635
781;8636
780;8637
780;8638
780;8639
779;8640
779;8641
778;8642
778;8643
777;8644
776;8645
772;8646
770;8647
768;8648
766;8649
765;8650
763;8651
761;8652
761;8653
760;8654
760;8655
760;8656
760;8657
761;8658
762;8659
762;8660
762;8661
763;8662
763;8663
763;8664
764;8665
764;8666
764;8667
763;8668
763;8669
762;8670
761;8671
761;8672
761;8673
762;8674
762;8675
762;8676
763;8677
763;8678
764;8679
764;8680
763;8681
761;8682
756;8683
752;8684
748;8685
744;8686
741;8687
739;8688
735;8689
733;8690
732;8691
731;8692
730;8693
730;8694
731;8695
733;8696
734;8697
736;8698
738;8699
741;8700
743;8701
747;8702
749;8703
750;8704
751;8705
753;8706
753;8707
755;8708
756;8709
757;8710
758;8711
758;8712
758;8713
758;8714
758;8715
758;8716
758;8717
758;8718
757;8719
756;8720
756;8721
756;8722
756;8723
755;8724
755;8725
755;8726
755;8727
755;8728
756;8729
756;8730
757;8731
758;8732
759;8733
760;8734
761;8735
761;8736
762;8737
762;8738
763;8739
762;8740
762;8741
762;8742
761;8743
761;8744
760;8745
759;8746
759;8747
758;8748
758;8749
757;8750
756;8751
757;8752
757;8753
757;8754
758;8755
759;8756
760;8757
761;8758
762;8759
763;8760
764;8761
765;8762
766;8763
768;8764
768;8765
769;8766
770;8767
771;8768
772;8769
773;8770
774;8771
775;8772
776;8773
776;8774
776;8775
776;8776
776;8777
776;8778
776;8779
775;8780
775;8781
773;8782
772;8783
771;8784
770;8785
769;8786
768;8787
765;8788
764;8789
763;8790
761;8791
760;8792
759;8793
758;8794
755;8795
753;8796
751;8797
749;8798
747;8799
745;8800
741;8801
740;8802
739;8803
738;8804
738;8805
738;8806
739;8807
740;8808
741;8809
743;8810
744;8811
746;8812
748;8813
751;8814
753;8815
754;8816
755;8817
756;8818
757;8819
757;8820
757;8821
757;8822
756;8823
756;8824
755;8825
754;8826
754;8827
752;8828
750;8829
748;8830
746;8831
741;8832
738;8833
735;8834
732;8835
730;8836
728;8837
727;8838
726;8839
725;8840
726;8841
726;8842
727;8843
728;8844
730;8845
731;8846
733;8847
734;8848
736;8849
738;8850
741;8851
743;8852
745;8853
746;8854
748;8855
748;8856
746;8857
744;8858
742;8859
740;8860
739;8861
737;8862
734;8863
732;8864
731;8865
730;8866
729;8867
729;8868
728;8869
728;8870
728;8871
729;8872
729;8873
729;8874
729;8875
730;8876
731;8877
731;8878
732;8879
732;8880
733;8881
736;8882
738;8883
739;8884
741;8885
743;8886
745;8887
749;8888
751;8889
752;8890
753;8891
755;8892
756;8893
757;8894
759;8895
759;8896
760;8897
759;8898
760;8899
759;8900
758;8901
757;8902
757;8903
756;8904
756;8905
755;8906
754;8907
754;8908
753;8909
752;8910
752;8911
752;8912
752;8913
752;8914
752;8915
752;8916
753;8917
753;8918
754;8919
755;8920
755;8921
756;8922
756;8923
757;8924
757;8925
758;8926
758;8927
758;8928
759;8929
759;8930
760;8931
759;8932
759;8933
759;8934
758;8935
756;8936
752;8937
750;8938
749;8939
747;8940
746;8941
746;8942
746;8943
744;8944
743;8945
743;8946
743;8947
743;8948
743;8949
744;8950
745;8951
745;8952
746;8953
746;8954
747;8955
750;8956
750;8957
752;8958
753;8959
753;8960
753;8961
752;8962
752;8963
752;8964
751;8965
751;8966
751;8967
750;8968
749;8969
749;8970
748;8971
748;8972
747;8973
747;8974
746;8975
746;8976
745;8977
745;8978
745;8979
745;8980
745;8981
746;8982
746;8983
747;8984
747;8985
747;8986
745;8987
744;8988
742;8989
741;8990
740;8991
738;8992
730;8993
725;8994
721;8995
717;8996
713;8997
711;8998
709;8999
706;9000
705;9001
706;9002
706;9003
707;9004
708;9005
712;9006
714;9007
716;9008
719;9009
721;9010
723;9011
727;9012
729;9013
730;9014
731;9015
731;9016
732;9017
732;9018
733;9019
734;9020
735;9021
738;9022
740;9023
744;9024
746;9025
747;9026
749;9027
751;9028
752;9029
754;9030
757;9031
759;9032
761;9033
761;9034
762;9035
763;9036
764;9037
764;9038
764;9039
764;9040
764;9041
764;9042
765;9043
765;9044
765;9045
765;9046
765;9047
766;9048
766;9049
766;9050
766;9051
766;9052
766;9053
767;9054
767;9055
766;9056
766;9057
766;9058
765;9059
765;9060
764;9061
761;9062
760;9063
760;9064
759;9065
758;9066
756;9067
753;9068
751;9069
749;9070
748;9071
747;9072
746;9073
744;9074
744;9075
743;9076
743;9077
743;9078
742;9079
742;9080
742;9081
741;9082
741;9083
740;9084
740;9085
739;9086
738;9087
738;9088
739;9089
739;9090
739;9091
741;9092
743;9093
744;9094
745;9095
746;9096
748;9097
749;9098
751;9099
752;9100
752;9101
752;9102
752;9103
751;9104
750;9105
749;9106
747;9107
744;9108
741;9109
738;9110
731;9111
728;9112
726;9113
724;9114
722;9115
721;9116
720;9117
719;9118
719;9119
720;9120
720;9121
720;9122
720;9123
721;9124
723;9125
724;9126
725;9127
726;9128
727;9129
730;9130
732;9131
733;9132
734;9133
735;9134
737;9135
739;9136
740;9137
739;9138
739;9139
737;9140
736;9141
734;9142
733;9143
732;9144
732;9145
731;9146
731;9147
732;9148
732;9149
733;9150
735;9151
737;9152
738;9153
741;9154
745;9155
748;9156
750;9157
752;9158
754;9159
756;9160
759;9161
761;9162
761;9163
762;9164
763;9165
763;9166
764;9167
764;9168
765;9169
765;9170
765;9171
766;9172
765;9173
765;9174
764;9175
764;9176
763;9177
763;9178
762;9179
762;9180
761;9181
761;9182
762;9183
761;9184
761;9185
760;9186
759;9187
758;9188
756;9189
755;9190
755;9191
753;9192
751;9193
750;9194
749;9195
747;9196
747;9197
745;9198
744;9199
744;9200
744;9201
745;9202
745;9203
747;9204
748;9205
749;9206
750;9207
751;9208
752;9209
752;9210
754;9211
755;9212
757;9213
758;9214
758;9215
759;9216
760;9217
761;9218
761;9219
760;9220
760;9221
760;9222
759;9223
757;9224
755;9225
752;9226
748;9227
745;9228
739;9229
737;9230
736;9231
734;9232
733;9233
733;9234
734;9235
735;9236
736;9237
738;9238
739;9239
740;9240
741;9241
742;9242
742;9243
742;9244
743;9245
742;9246
742;9247
743;9248
743;9249
744;9250
744;9251
745;9252
746;9253
748;9254
748;9255
749;9256
748;9257
748;9258
747;9259
745;9260
743;9261
741;9262
739;9263
738;9264
736;9265
734;9266
733;9267
732;9268
731;9269
731;9270
730;9271
726;9272
723;9273
721;9274
719;9275
718;9276
716;9277
714;9278
714;9279
714;9280
715;9281
716;9282
718;9283
719;9284
724;9285
726;9286
728;9287
732;9288
734;9289
737;9290
742;9291
744;9292
745;9293
747;9294
748;9295
749;9296
751;9297
751;9298
752;9299
752;9300
752;9301
753;9302
754;9303
753;9304
753;9305
754;9306
754;9307
754;9308
754;9309
753;9310
752;9311
751;9312
749;9313
747;9314
745;9315
741;9316
740;9317
739;9318
738;9319
737;9320
737;9321
737;9322
738;9323
739;9324
739;9325
740;9326
742;9327
744;9328
745;9329
747;9330
748;9331
749;9332
750;9333
752;9334
753;9335
753;9336
754;9337
754;9338
755;9339
755;9340
756;9341
756;9342
757;9343
757;9344
756;9345
756;9346
754;9347
754;9348
754;9349
753;9350
753;9351
753;9352
753;9353
753;9354
754;9355
754;9356
754;9357
755;9358
755;9359
755;9360
756;9361
756;9362
757;9363
757;9364
758;9365
758;9366
758;9367
758;9368
759;9369
759;9370
759;9371
759;9372
759;9373
759;9374
759;9375
759;9376
759;9377
758;9378
756;9379
755;9380
753;9381
751;9382
749;9383
745;9384
744;9385
742;9386
741;9387
740;9388
740;9389
740;9390
741;9391
741;9392
742;9393
743;9394
745;9395
747;9396
749;9397
751;9398
752;9399
753;9400
754;9401
755;9402
757;9403
758;9404
758;9405
758;9406
758;9407
757;9408
754;9409
751;9410
746;9411
741;9412
735;9413
728;9414
717;9415
712;9416
709;9417
705;9418
703;9419
702;9420
701;9421
702;9422
703;9423
705;9424
707;9425
709;9426
714;9427
716;9428
719;9429
721;9430
723;9431
724;9432
728;9433
730;9434
731;9435
731;9436
732;9437
733;9438
735;9439
736;9440
737;9441
738;9442
739;9443
740;9444
741;9445
741;9446
741;9447
741;9448
741;9449
740;9450
739;9451
736;9452
736;9453
735;9454
734;9455
734;9456
734;9457
734;9458
735;9459
736;9460
737;9461
738;9462
739;9463
742;9464
743;9465
745;9466
747;9467
749;9468
751;9469
754;9470
755;9471
756;9472
757;9473
757;9474
756;9475
754;9476
753;9477
752;9478
752;9479
751;9480
751;9481
751;9482
750;9483
750;9484
750;9485
750;9486
749;9487
748;9488
745;9489
742;9490
738;9491
735;9492
733;9493
731;9494
729;9495
728;9496
728;9497
728;9498
729;9499
730;9500
731;9501
734;9502
736;9503
738;9504
740;9505
741;9506
743;9507
745;9508
746;9509
747;9510
747;9511
748;9512
748;9513
750;9514
750;9515
750;9516
749;9517
748;9518
748;9519
748;9520
748;9521
748;9522
748;9523
748;9524
749;9525
750;9526
750;9527
751;9528
751;9529
751;9530
750;9531
749;9532
746;9533
745;9534
743;9535
742;9536
741;9537
739;9538
737;9539
737;9540
737;9541
737;9542
737;9543
738;9544
740;9545
741;9546
743;9547
744;9548
745;9549
747;9550
749;9551
751;9552
752;9553
753;9554
754;9555
755;9556
757;9557
756;9558
754;9559
752;9560
748;9561
743;9562
738;9563
731;9564
727;9565
724;9566
722;9567
720;9568
719;9569
718;9570
719;9571
720;9572
722;9573
723;9574
725;9575
730;9576
731;9577
733;9578
734;9579
734;9580
734;9581
734;9582
734;9583
734;9584
733;9585
733;9586
732;9587
732;9588
733;9589
733;9590
734;9591
734;9592
735;9593
736;9594
739;9595
741;9596
742;9597
743;9598
744;9599
744;9600
744;9601
744;9602
743;9603
744;9604
744;9605
744;9606
744;9607
744;9608
744;9609
743;9610
743;9611
742;9612
739;9613
736;9614
734;9615
733;9616
731;9617
730;9618
729;9619
728;9620
727;9621
726;9622
725;9623
723;9624
721;9625
719;9626
719;9627
719;9628
719;9629
720;9630
721;9631
724;9632
725;9633
726;9634
728;9635
729;9636
731;9637
733;9638
734;9639
735;9640
736;9641
736;9642
738;9643
738;9644
740;9645
740;9646
740;9647
740;9648
740;9649
739;9650
738;9651
738;9652
737;9653
737;9654
736;9655
734;9656
728;9657
725;9658
722;9659
720;9660
717;9661
715;9662
712;9663
711;9664
711;9665
712;9666
712;9667
713;9668
716;9669
718;9670
720;9671
722;9672
724;9673
725;9674
728;9675
731;9676
732;9677
734;9678
735;9679
737;9680
739;9681
743;9682
744;9683
746;9684
747;9685
749;9686
750;9687
752;9688
754;9689
754;9690
755;9691
755;9692
755;9693
754;9694
753;9695
753;9696
752;9697
751;9698
748;9699
743;9700
740;9701
737;9702
735;9703
733;9704
731;9705
730;9706
728;9707
728;9708
728;9709
729;9710
730;9711
730;9712
731;9713
732;9714
733;9715
734;9716
735;9717
736;9718
737;9719
737;9720
737;9721
737;9722
737;9723
737;9724
734;9725
731;9726
728;9727
726;9728
724;9729
722;9730
720;9731
718;9732
717;9733
716;9734
717;9735
717;9736
718;9737
720;9738
722;9739
723;9740
724;9741
723;9742
722;9743
720;9744
719;9745
718;9746
718;9747
717;9748
717;9749
719;9750
720;9751
721;9752
723;9753
725;9754
728;9755
733;9756
736;9757
738;9758
741;9759
744;9760
747;9761
749;9762
753;9763
755;9764
756;9765
757;9766
758;9767
758;9768
759;9769
759;9770
758;9771
757;9772
755;9773
754;9774
751;9775
749;9776
747;9777
746;9778
744;9779
742;9780
738;9781
735;9782
732;9783
729;9784
726;9785
723;9786
722;9787
719;9788
719;9789
718;9790
718;9791
718;9792
718;9793
716;9794
716;9795
715;9796
713;9797
712;9798
712;9799
711;9800
711;9801
711;9802
712;9803
712;9804
714;9805
717;9806
718;9807
721;9808
723;9809
726;9810
728;9811
733;9812
735;9813
737;9814
738;9815
739;9816
739;9817
740;9818
741;9819
741;9820
742;9821
743;9822
744;9823
745;9824
747;9825
747;9826
749;9827
749;9828
749;9829
749;9830
748;9831
748;9832
747;9833
747;9834
746;9835
746;9836
745;9837
744;9838
743;9839
742;9840
742;9841
741;9842
741;9843
741;9844
741;9845
741;9846
742;9847
742;9848
744;9849
746;9850
747;9851
748;9852
749;9853
750;9854
751;9855
753;9856
754;9857
755;9858
756;9859
757;9860
759;9861
760;9862
761;9863
761;9864
761;9865
762;9866
761;9867
761;9868
761;9869
761;9870
761;9871
760;9872
760;9873
759;9874
759;9875
759;9876
759;9877
759;9878
759;9879
757;9880
754;9881
752;9882
751;9883
749;9884
748;9885
747;9886
745;9887
745;9888
745;9889
745;9890
746;9891
747;9892
749;9893
751;9894
752;9895
753;9896
753;9897
752;9898
750;9899
748;9900
747;9901
746;9902
745;9903
744;9904
743;9905
743;9906
743;9907
744;9908
744;9909
745;9910
746;9911
745;9912
744;9913
742;9914
739;9915
737;9916
735;9917
731;9918
730;9919
729;9920
729;9921
728;9922
728;9923
729;9924
729;9925
730;9926
730;9927
730;9928
730;9929
730;9930
730;9931
731;9932
732;9933
734;9934
735;9935
737;9936
739;9937
741;9938
743;9939
745;9940
747;9941
749;9942
753;9943
755;9944
756;9945
758;9946
759;9947
760;9948
762;9949
765;9950
766;9951
767;9952
768;9953
768;9954
769;9955
770;9956
771;9957
771;9958
771;9959
771;9960
771;9961
770;9962
769;9963
767;9964
766;9965
765;9966
762;9967
757;9968
753;9969
751;9970
748;9971
744;9972
740;9973
731;9974
728;9975
725;9976
723;9977
721;9978
720;9979
720;9980
721;9981
723;9982
724;9983
727;9984
729;9985
732;9986
737;9987
740;9988
743;9989
745;9990
747;9991
748;9992
751;9993
752;9994
753;9995
754;9996
755;9997
755;9998
755;9999
756;10000
756;10001
756;10002
756;10003
756;10004
756;10005
755;10006
755;10007
755;10008
756;10009
755;10010
755;10011
753;10012
751;10013
749;10014
746;10015
743;10016
741;10017
734;10018
732;10019
730;10020
728;10021
727;10022
725;10023
722;10024
720;10025
719;10026
718;10027
716;10028
716;10029
716;10030
718;10031
719;10032
721;10033
724;10034
726;10035
731;10036
733;10037
735;10038
737;10039
739;10040
742;10041
746;10042
748;10043
750;10044
751;10045
751;10046
752;10047
753;10048
753;10049
752;10050
751;10051
751;10052
750;10053
750;10054
750;10055
750;10056
751;10057
752;10058
753;10059
753;10060
755;10061
756;10062
756;10063
757;10064
759;10065
759;10066
761;10067
762;10068
763;10069
764;10070
765;10071
765;10072
766;10073
766;10074
766;10075
766;10076
767;10077
767;10078
768;10079
768;10080
768;10081
767;10082
766;10083
764;10084
763;10085
759;10086
758;10087
756;10088
755;10089
754;10090
754;10091
754;10092
754;10093
754;10094
753;10095
754;10096
754;10097
755;10098
756;10099
757;10100
758;10101
759;10102
759;10103
760;10104
761;10105
762;10106
763;10107
764;10108
764;10109
765;10110
766;10111
766;10112
766;10113
766;10114
766;10115
767;10116
768;10117
769;10118
769;10119
770;10120
770;10121
770;10122
768;10123
767;10124
765;10125
764;10126
762;10127
760;10128
758;10129
757;10130
756;10131
756;10132
756;10133
756;10134
757;10135
758;10136
759;10137
760;10138
761;10139
762;10140
764;10141
765;10142
766;10143
766;10144
767;10145
768;10146
768;10147
769;10148
769;10149
769;10150
770;10151
770;10152
770;10153
767;10154
764;10155
760;10156
756;10157
752;10158
748;10159
742;10160
740;10161
738;10162
737;10163
736;10164
736;10165
736;10166
737;10167
738;10168
739;10169
741;10170
743;10171
745;10172
749;10173
751;10174
752;10175
754;10176
754;10177
754;10178
752;10179
750;10180
745;10181
740;10182
736;10183
731;10184
725;10185
722;10186
721;10187
720;10188
719;10189
719;10190
721;10191
723;10192
725;10193
728;10194
731;10195
733;10196
735;10197
736;10198
735;10199
733;10200
730;10201
727;10202
724;10203
719;10204
718;10205
718;10206
718;10207
718;10208
720;10209
723;10210
725;10211
728;10212
730;10213
733;10214
736;10215
741;10216
744;10217
747;10218
749;10219
752;10220
754;10221
756;10222
758;10223
760;10224
761;10225
761;10226
762;10227
762;10228
762;10229
762;10230
761;10231
760;10232
760;10233
759;10234
758;10235
758;10236
758;10237
758;10238
758;10239
759;10240
759;10241
759;10242
760;10243
761;10244
761;10245
762;10246
762;10247
761;10248
761;10249
760;10250
759;10251
758;10252
754;10253
753;10254
751;10255
750;10256
749;10257
748;10258
748;10259
748;10260
749;10261
750;10262
751;10263
751;10264
752;10265
754;10266
754;10267
754;10268
755;10269
756;10270
757;10271
758;10272
758;10273
759;10274
759;10275
760;10276
760;10277
761;10278
761;10279
761;10280
762;10281
762;10282
763;10283
764;10284
764;10285
764;10286
763;10287
764;10288
764;10289
762;10290
761;10291
760;10292
760;10293
759;10294
759;10295
758;10296
758;10297
758;10298
758;10299
757;10300
755;10301
754;10302
750;10303
748;10304
747;10305
745;10306
745;10307
744;10308
743;10309
743;10310
743;10311
743;10312
743;10313
742;10314
742;10315
741;10316
742;10317
742;10318
744;10319
745;10320
747;10321
748;10322
750;10323
751;10324
752;10325
753;10326
755;10327
755;10328
756;10329
756;10330
755;10331
753;10332
749;10333
747;10334
745;10335
743;10336
741;10337
739;10338
738;10339
735;10340
733;10341
732;10342
731;10343
731;10344
731;10345
732;10346
734;10347
736;10348
738;10349
740;10350
743;10351
748;10352
751;10353
753;10354
756;10355
758;10356
760;10357
763;10358
764;10359
766;10360
766;10361
767;10362
767;10363
767;10364
767;10365
767;10366
767;10367
767;10368
767;10369
767;10370
767;10371
767;10372
766;10373
766;10374
766;10375
766;10376
766;10377
766;10378
766;10379
766;10380
765;10381
765;10382
764;10383
764;10384
764;10385
763;10386
763;10387
764;10388
764;10389
764;10390
764;10391
764;10392
764;10393
764;10394
763;10395
763;10396
762;10397
762;10398
761;10399
761;10400
760;10401
759;10402
759;10403
759;10404
758;10405
757;10406
756;10407
753;10408
751;10409
750;10410
749;10411
747;10412
746;10413
744;10414
744;10415
744;10416
744;10417
745;10418
746;10419
749;10420
751;10421
752;10422
754;10423
755;10424
757;10425
759;10426
760;10427
761;10428
762;10429
763;10430
763;10431
762;10432
761;10433
761;10434
760;10435
760;10436
759;10437
759;10438
759;10439
759;10440
760;10441
760;10442
760;10443
761;10444
761;10445
760;10446
759;10447
756;10448
754;10449
751;10450
746;10451
744;10452
742;10453
740;10454
738;10455
736;10456
735;10457
735;10458
735;10459
735;10460
736;10461
737;10462
739;10463
742;10464
744;10465
746;10466
747;10467
748;10468
748;10469
750;10470
751;10471
751;10472
751;10473
751;10474
751;10475
749;10476
747;10477
745;10478
743;10479
742;10480
741;10481
739;10482
739;10483
739;10484
739;10485
739;10486
740;10487
742;10488
743;10489
744;10490
746;10491
747;10492
749;10493
750;10494
751;10495
751;10496
752;10497
752;10498
751;10499
751;10500
750;10501
750;10502
749;10503
749;10504
749;10505
749;10506
749;10507
749;10508
749;10509
749;10510
748;10511
747;10512
744;10513
743;10514
742;10515
742;10516
741;10517
741;10518
741;10519
741;10520
741;10521
742;10522
743;10523
743;10524
742;10525
741;10526
739;10527
738;10528
737;10529
735;10530
734;10531
729;10532
728;10533
726;10534
725;10535
724;10536
724;10537
725;10538
726;10539
727;10540
729;10541
731;10542
732;10543
737;10544
739;10545
741;10546
743;10547
745;10548
748;10549
750;10550
755;10551
758;10552
759;10553
761;10554
762;10555
764;10556
765;10557
765;10558
765;10559
765;10560
765;10561
764;10562
763;10563
761;10564
759;10565
757;10566
755;10567
754;10568
751;10569
750;10570
750;10571
750;10572
750;10573
751;10574
751;10575
752;10576
753;10577
754;10578
755;10579
756;10580
757;10581
758;10582
758;10583
759;10584
759;10585
759;10586
759;10587
759;10588
759;10589
759;10590
759;10591
759;10592
760;10593
760;10594
760;10595
760;10596
760;10597
761;10598
761;10599
762;10600
762;10601
762;10602
763;10603
763;10604
764;10605
764;10606
763;10607
762;10608
761;10609
759;10610
757;10611
752;10612
749;10613
746;10614
743;10615
739;10616
736;10617
733;10618
728;10619
725;10620
724;10621
723;10622
723;10623
723;10624
724;10625
725;10626
726;10627
728;10628
730;10629
732;10630
736;10631
739;10632
741;10633
744;10634
746;10635
748;10636
752;10637
752;10638
752;10639
751;10640
749;10641
747;10642
745;10643
742;10644
740;10645
740;10646
740;10647
739;10648
739;10649
739;10650
739;10651
739;10652
740;10653
739;10654
740;10655
742;10656
743;10657
744;10658
745;10659
746;10660
747;10661
749;10662
750;10663
751;10664
752;10665
752;10666
753;10667
754;10668
754;10669
755;10670
756;10671
756;10672
757;10673
757;10674
756;10675
756;10676
756;10677
755;10678
755;10679
755;10680
755;10681
754;10682
753;10683
753;10684
752;10685
751;10686
746;10687
744;10688
742;10689
742;10690
741;10691
740;10692
741;10693
741;10694
742;10695
743;10696
745;10697
746;10698
749;10699
750;10700
752;10701
753;10702
754;10703
755;10704
755;10705
755;10706
754;10707
754;10708
753;10709
752;10710
752;10711
752;10712
753;10713
753;10714
753;10715
753;10716
751;10717
751;10718
750;10719
750;10720
749;10721
749;10722
748;10723
747;10724
747;10725
747;10726
746;10727
746;10728
746;10729
744;10730
742;10731
740;10732
739;10733
739;10734
738;10735
738;10736
738;10737
738;10738
739;10739
740;10740
741;10741
744;10742
745;10743
745;10744
745;10745
744;10746
742;10747
740;10748
739;10749
738;10750
737;10751
736;10752
736;10753
736;10754
737;10755
737;10756
739;10757
739;10758
741;10759
742;10760
743;10761
743;10762
744;10763
745;10764
746;10765
748;10766
751;10767
752;10768
753;10769
754;10770
755;10771
756;10772
758;10773
759;10774
759;10775
760;10776
760;10777
759;10778
756;10779
754;10780
752;10781
750;10782
748;10783
747;10784
745;10785
744;10786
743;10787
742;10788
742;10789
742;10790
742;10791
742;10792
742;10793
741;10794
739;10795
736;10796
734;10797
730;10798
728;10799
725;10800
723;10801
721;10802
719;10803
716;10804
715;10805
715;10806
716;10807
717;10808
718;10809
722;10810
724;10811
726;10812
728;10813
730;10814
732;10815
734;10816
738;10817
739;10818
740;10819
741;10820
742;10821
744;10822
746;10823
747;10824
749;10825
750;10826
751;10827
752;10828
755;10829
755;10830
756;10831
757;10832
758;10833
758;10834
758;10835
755;10836
754;10837
752;10838
749;10839
746;10840
743;10841
739;10842
737;10843
737;10844
737;10845
738;10846
739;10847
742;10848
744;10849
747;10850
749;10851
752;10852
754;10853
758;10854
761;10855
762;10856
763;10857
764;10858
764;10859
763;10860
762;10861
761;10862
760;10863
760;10864
759;10865
757;10866
757;10867
756;10868
755;10869
753;10870
752;10871
752;10872
750;10873
749;10874
748;10875
748;10876
748;10877
747;10878
744;10879
743;10880
742;10881
741;10882
741;10883
740;10884
739;10885
738;10886
738;10887
738;10888
739;10889
739;10890
740;10891
742;10892
743;10893
744;10894
745;10895
747;10896
749;10897
750;10898
751;10899
751;10900
752;10901
753;10902
753;10903
752;10904
751;10905
750;10906
747;10907
744;10908
736;10909
732;10910
728;10911
724;10912
722;10913
720;10914
717;10915
716;10916
715;10917
714;10918
713;10919
712;10920
711;10921
710;10922
711;10923
712;10924
713;10925
713;10926
715;10927
717;10928
718;10929
720;10930
722;10931
723;10932
725;10933
728;10934
730;10935
732;10936
734;10937
736;10938
737;10939
739;10940
740;10941
742;10942
743;10943
744;10944
745;10945
746;10946
746;10947
747;10948
748;10949
749;10950
749;10951
751;10952
752;10953
754;10954
755;10955
755;10956
756;10957
757;10958
757;10959
757;10960
757;10961
757;10962
756;10963
755;10964
753;10965
753;10966
753;10967
753;10968
752;10969
752;10970
752;10971
751;10972
751;10973
752;10974
751;10975
749;10976
745;10977
743;10978
741;10979
739;10980
738;10981
737;10982
737;10983
737;10984
737;10985
738;10986
739;10987
740;10988
741;10989
740;10990
739;10991
738;10992
737;10993
736;10994
736;10995
735;10996
735;10997
735;10998
735;10999
736;11000
737;11001
741;11002
742;11003
742;11004
744;11005
745;11006
744;11007
744;11008
743;11009
742;11010
742;11011
743;11012
742;11013
743;11014
744;11015
745;11016
746;11017
747;11018
748;11019
750;11020
752;11021
752;11022
752;11023
751;11024
749;11025
747;11026
742;11027
739;11028
737;11029
735;11030
732;11031
730;11032
726;11033
725;11034
724;11035
723;11036
723;11037
724;11038
724;11039
725;11040
726;11041
726;11042
727;11043
727;11044
727;11045
728;11046
728;11047
727;11048
725;11049
723;11050
722;11051
720;11052
719;11053
718;11054
718;11055
717;11056
717;11057
717;11058
717;11059
717;11060
718;11061
719;11062
721;11063
722;11064
727;11065
729;11066
731;11067
733;11068
734;11069
736;11070
737;11071
739;11072
740;11073
741;11074
742;11075
742;11076
739;11077
738;11078
736;11079
733;11080
729;11081
725;11082
720;11083
712;11084
709;11085
707;11086
705;11087
704;11088
704;11089
707;11090
709;11091
711;11092
713;11093
716;11094
718;11095
725;11096
728;11097
731;11098
735;11099
737;11100
740;11101
744;11102
747;11103
748;11104
749;11105
749;11106
749;11107
750;11108
751;11109
752;11110
752;11111
752;11112
752;11113
750;11114
749;11115
748;11116
748;11117
748;11118
748;11119
749;11120
750;11121
750;11122
751;11123
752;11124
752;11125
752;11126
752;11127
752;11128
753;11129
754;11130
755;11131
756;11132
758;11133
759;11134
759;11135
758;11136
753;11137
747;11138
734;11139
728;11140
724;11141
721;11142
717;11143
714;11144
708;11145
706;11146
703;11147
701;11148
700;11149
699;11150
701;11151
703;11152
705;11153
707;11154
709;11155
709;11156
710;11157
712;11158
713;11159
714;11160
715;11161
717;11162
718;11163
722;11164
723;11165
725;11166
727;11167
728;11168
729;11169
733;11170
735;11171
737;11172
739;11173
741;11174
743;11175
748;11176
750;11177
752;11178
754;11179
756;11180
756;11181
756;11182
755;11183
753;11184
750;11185
746;11186
743;11187
740;11188
734;11189
732;11190
730;11191
729;11192
728;11193
728;11194
728;11195
729;11196
729;11197
728;11198
727;11199
725;11200
722;11201
722;11202
723;11203
723;11204
724;11205
725;11206
727;11207
728;11208
729;11209
731;11210
732;11211
734;11212
736;11213
739;11214
740;11215
742;11216
742;11217
743;11218
744;11219
746;11220
747;11221
750;11222
752;11223
754;11224
755;11225
755;11226
755;11227
755;11228
755;11229
754;11230
755;11231
755;11232
755;11233
756;11234
757;11235
759;11236
761;11237
763;11238
763;11239
764;11240
765;11241
765;11242
766;11243
767;11244
767;11245
767;11246
767;11247
766;11248
766;11249
767;11250
769;11251
770;11252
771;11253
772;11254
774;11255
775;11256
779;11257
780;11258
782;11259
783;11260
784;11261
785;11262
786;11263
786;11264
786;11265
786;11266
786;11267
785;11268
783;11269
780;11270
779;11271
778;11272
777;11273
775;11274
773;11275
765;11276
761;11277
758;11278
754;11279
752;11280
750;11281
747;11282
746;11283
745;11284
745;11285
744;11286
743;11287
743;11288
743;11289
743;11290
744;11291
745;11292
746;11293
748;11294
747;11295
747;11296
748;11297
748;11298
748;11299
749;11300
749;11301
750;11302
751;11303
752;11304
753;11305
753;11306
756;11307
757;11308
758;11309
760;11310
761;11311
762;11312
762;11313
762;11314
762;11315
762;11316
760;11317
756;11318
746;11319
742;11320
738;11321
736;11322
733;11323
732;11324
730;11325
730;11326
730;11327
732;11328
733;11329
735;11330
741;11331
744;11332
748;11333
752;11334
755;11335
759;11336
764;11337
766;11338
766;11339
766;11340
767;11341
767;11342
766;11343
765;11344
765;11345
765;11346
765;11347
765;11348
766;11349
766;11350
766;11351
767;11352
767;11353
768;11354
768;11355
770;11356
770;11357
771;11358
771;11359
772;11360
773;11361
774;11362
774;11363
775;11364
775;11365
775;11366
776;11367
773;11368
769;11369
765;11370
760;11371
755;11372
749;11373
743;11374
731;11375
726;11376
723;11377
720;11378
719;11379
718;11380
719;11381
719;11382
721;11383
723;11384
726;11385
728;11386
734;11387
737;11388
740;11389
743;11390
746;11391
748;11392
753;11393
756;11394
758;11395
761;11396
763;11397
765;11398
767;11399
770;11400
771;11401
771;11402
771;11403
771;11404
770;11405
767;11406
764;11407
762;11408
760;11409
757;11410
754;11411
750;11412
748;11413
747;11414
745;11415
745;11416
744;11417
744;11418
745;11419
745;11420
746;11421
747;11422
748;11423
750;11424
753;11425
755;11426
756;11427
758;11428
760;11429
761;11430
763;11431
764;11432
765;11433
766;11434
766;11435
766;11436
767;11437
767;11438
767;11439
767;11440
767;11441
768;11442
769;11443
770;11444
770;11445
771;11446
771;11447
772;11448
772;11449
772;11450
772;11451
772;11452
771;11453
771;11454
771;11455
770;11456
770;11457
769;11458
768;11459
768;11460
767;11461
765;11462
765;11463
764;11464
764;11465
764;11466
764;11467
765;11468
765;11469
766;11470
767;11471
767;11472
768;11473
768;11474
768;11475
768;11476
768;11477
768;11478
767;11479
767;11480
767;11481
766;11482
766;11483
766;11484
766;11485
766;11486
763;11487
760;11488
757;11489
753;11490
747;11491
740;11492
727;11493
720;11494
714;11495
708;11496
702;11497
697;11498
688;11499
684;11500
681;11501
678;11502
677;11503
678;11504
680;11505
683;11506
686;11507
690;11508
694;11509
698;11510
702;11511
709;11512
712;11513
715;11514
718;11515
722;11516
726;11517
732;11518
735;11519
737;11520
739;11521
741;11522
744;11523
747;11524
749;11525
751;11526
753;11527
755;11528
757;11529
760;11530
761;11531
762;11532
763;11533
764;11534
765;11535
765;11536
767;11537
768;11538
770;11539
770;11540
771;11541
772;11542
772;11543
772;11544
772;11545
771;11546
771;11547
770;11548
770;11549
769;11550
768;11551
767;11552
766;11553
765;11554
764;11555
764;11556
764;11557
764;11558
764;11559
765;11560
766;11561
766;11562
766;11563
767;11564
767;11565
768;11566
768;11567
767;11568
766;11569
766;11570
766;11571
766;11572
766;11573
767;11574
767;11575
768;11576
768;11577
769;11578
769;11579
770;11580
771;11581
772;11582
771;11583
771;11584
772;11585
772;11586
773;11587
773;11588
773;11589
773;11590
773;11591
773;11592
773;11593
772;11594
772;11595
771;11596
771;11597
770;11598
770;11599
770;11600
770;11601
770;11602
769;11603
766;11604
763;11605
760;11606
757;11607
752;11608
749;11609
741;11610
738;11611
735;11612
732;11613
729;11614
726;11615
724;11616
722;11617
722;11618
722;11619
723;11620
725;11621
727;11622
732;11623
735;11624
738;11625
741;11626
744;11627
746;11628
750;11629
753;11630
755;11631
757;11632
759;11633
760;11634
759;11635
758;11636
757;11637
755;11638
754;11639
753;11640
753;11641
752;11642
752;11643
751;11644
751;11645
749;11646
749;11647
748;11648
747;11649
746;11650
746;11651
746;11652
745;11653
745;11654
745;11655
745;11656
745;11657
745;11658
745;11659
746;11660
746;11661
746;11662
747;11663
747;11664
748;11665
747;11666
744;11667
742;11668
739;11669
737;11670
735;11671
733;11672
730;11673
729;11674
728;11675
728;11676
728;11677
729;11678
732;11679
734;11680
736;11681
737;11682
738;11683
739;11684
733;11685
726;11686
719;11687
713;11688
707;11689
702;11690
696;11691
694;11692
694;11693
693;11694
694;11695
696;11696
701;11697
705;11698
709;11699
714;11700
719;11701
724;11702
729;11703
737;11704
741;11705
745;11706
748;11707
751;11708
755;11709
760;11710
761;11711
763;11712
764;11713
765;11714
766;11715
768;11716
768;11717
769;11718
769;11719
769;11720
769;11721
767;11722
767;11723
767;11724
767;11725
767;11726
766;11727
767;11728
768;11729
768;11730
769;11731
770;11732
771;11733
774;11734
775;11735
776;11736
777;11737
778;11738
779;11739
781;11740
781;11741
781;11742
781;11743
781;11744
780;11745
779;11746
779;11747
779;11748
778;11749
777;11750
776;11751
775;11752
774;11753
773;11754
772;11755
771;11756
771;11757
771;11758
772;11759
772;11760
772;11761
773;11762
773;11763
773;11764
773;11765
772;11766
771;11767
769;11768
768;11769
767;11770
764;11771
763;11772
762;11773
760;11774
757;11775
755;11776
752;11777
750;11778
749;11779
748;11780
748;11781
747;11782
747;11783
747;11784
746;11785
745;11786
744;11787
744;11788
743;11789
740;11790
738;11791
737;11792
736;11793
735;11794
735;11795
734;11796
735;11797
736;11798
737;11799
738;11800
740;11801
743;11802
745;11803
747;11804
748;11805
749;11806
749;11807
751;11808
752;11809
753;11810
753;11811
754;11812
755;11813
756;11814
756;11815
755;11816
754;11817
753;11818
752;11819
751;11820
747;11821
745;11822
744;11823
743;11824
742;11825
740;11826
738;11827
737;11828
737;11829
737;11830
738;11831
738;11832
739;11833
740;11834
741;11835
741;11836
742;11837
743;11838
745;11839
746;11840
748;11841
749;11842
751;11843
752;11844
753;11845
752;11846
751;11847
751;11848
749;11849
748;11850
747;11851
745;11852
744;11853
743;11854
743;11855
742;11856
740;11857
734;11858
731;11859
729;11860
727;11861
725;11862
724;11863
723;11864
724;11865
725;11866
726;11867
728;11868
730;11869
732;11870
736;11871
739;11872
742;11873
745;11874
747;11875
749;11876
753;11877
755;11878
756;11879
757;11880
759;11881
760;11882
761;11883
761;11884
761;11885
760;11886
760;11887
760;11888
760;11889
759;11890
759;11891
758;11892
758;11893
757;11894
757;11895
756;11896
756;11897
756;11898
755;11899
755;11900
755;11901
754;11902
754;11903
753;11904
753;11905
752;11906
751;11907
750;11908
750;11909
750;11910
750;11911
750;11912
749;11913
747;11914
746;11915
744;11916
744;11917
743;11918
743;11919
742;11920
742;11921
742;11922
743;11923
743;11924
744;11925
745;11926
746;11927
745;11928
743;11929
741;11930
740;11931
739;11932
735;11933
733;11934
730;11935
727;11936
725;11937
723;11938
719;11939
719;11940
719;11941
720;11942
721;11943
721;11944
719;11945
716;11946
713;11947
709;11948
705;11949
700;11950
691;11951
688;11952
685;11953
683;11954
682;11955
682;11956
684;11957
686;11958
688;11959
691;11960
694;11961
698;11962
702;11963
711;11964
715;11965
720;11966
723;11967
726;11968
728;11969
730;11970
731;11971
731;11972
731;11973
731;11974
731;11975
731;11976
732;11977
733;11978
734;11979
735;11980
737;11981
739;11982
742;11983
742;11984
742;11985
741;11986
741;11987
740;11988
737;11989
735;11990
733;11991
731;11992
730;11993
729;11994
724;11995
721;11996
718;11997
715;11998
713;11999
713;12000
714;12001
715;12002
716;12003
718;12004
719;12005
720;12006
724;12007
726;12008
729;12009
732;12010
735;12011
739;12012
742;12013
748;12014
751;12015
755;12016
759;12017
762;12018
765;12019
771;12020
773;12021
775;12022
776;12023
777;12024
779;12025
780;12026
781;12027
781;12028
781;12029
781;12030
781;12031
781;12032
780;12033
780;12034
780;12035
779;12036
779;12037
779;12038
780;12039
780;12040
781;12041
781;12042
782;12043
782;12044
784;12045
784;12046
785;12047
785;12048
786;12049
786;12050
788;12051
788;12052
789;12053
788;12054
788;12055
788;12056
788;12057
788;12058
788;12059
788;12060
787;12061
786;12062
783;12063
781;12064
779;12065
777;12066
775;12067
772;12068
768;12069
766;12070
764;12071
762;12072
761;12073
760;12074
758;12075
758;12076
757;12077
758;12078
758;12079
759;12080
759;12081
755;12082
752;12083
749;12084
745;12085
741;12086
736;12087
724;12088
718;12089
712;12090
707;12091
703;12092
698;12093
690;12094
686;12095
682;12096
680;12097
680;12098
681;12099
682;12100
688;12101
692;12102
696;12103
701;12104
707;12105
714;12106
727;12107
733;12108
739;12109
743;12110
746;12111
748;12112
751;12113
752;12114
754;12115
755;12116
755;12117
755;12118
756;12119
757;12120
758;12121
759;12122
761;12123
762;12124
766;12125
767;12126
769;12127
771;12128
773;12129
774;12130
777;12131
778;12132
779;12133
780;12134
780;12135
780;12136
779;12137
777;12138
775;12139
773;12140
771;12141
769;12142
766;12143
761;12144
759;12145
758;12146
756;12147
755;12148
755;12149
755;12150
755;12151
755;12152
755;12153
755;12154
755;12155
756;12156
756;12157
756;12158
755;12159
753;12160
748;12161
739;12162
735;12163
733;12164
731;12165
729;12166
728;12167
728;12168
729;12169
730;12170
732;12171
734;12172
736;12173
739;12174
745;12175
748;12176
752;12177
755;12178
758;12179
760;12180
764;12181
765;12182
767;12183
768;12184
769;12185
770;12186
772;12187
773;12188
774;12189
775;12190
776;12191
776;12192
777;12193
777;12194
778;12195
777;12196
778;12197
777;12198
774;12199
771;12200
768;12201
765;12202
762;12203
759;12204
755;12205
753;12206
752;12207
752;12208
751;12209
752;12210
752;12211
753;12212
755;12213
756;12214
757;12215
758;12216
760;12217
761;12218
760;12219
761;12220
761;12221
761;12222
760;12223
759;12224
758;12225
756;12226
753;12227
749;12228
745;12229
736;12230
732;12231
727;12232
723;12233
718;12234
715;12235
712;12236
711;12237
711;12238
711;12239
713;12240
715;12241
717;12242
723;12243
727;12244
730;12245
733;12246
736;12247
739;12248
744;12249
747;12250
748;12251
750;12252
752;12253
754;12254
756;12255
756;12256
756;12257
756;12258
756;12259
756;12260
755;12261
755;12262
755;12263
755;12264
754;12265
755;12266
756;12267
756;12268
757;12269
757;12270
758;12271
759;12272
760;12273
758;12274
756;12275
754;12276
751;12277
747;12278
745;12279
740;12280
737;12281
734;12282
732;12283
729;12284
727;12285
723;12286
722;12287
722;12288
723;12289
724;12290
725;12291
730;12292
732;12293
735;12294
738;12295
741;12296
743;12297
749;12298
752;12299
755;12300
757;12301
760;12302
763;12303
768;12304
770;12305
771;12306
772;12307
772;12308
772;12309
770;12310
769;12311
769;12312
768;12313
766;12314
766;12315
764;12316
763;12317
762;12318
762;12319
761;12320
761;12321
761;12322
762;12323
762;12324
764;12325
765;12326
766;12327
767;12328
771;12329
772;12330
772;12331
771;12332
771;12333
770;12334
768;12335
768;12336
767;12337
767;12338
768;12339
768;12340
767;12341
766;12342
766;12343
766;12344
766;12345
766;12346
767;12347
768;12348
768;12349
769;12350
769;12351
770;12352
770;12353
769;12354
770;12355
770;12356
771;12357
772;12358
772;12359
773;12360
773;12361
774;12362
775;12363
775;12364
775;12365
776;12366
775;12367
774;12368
772;12369
770;12370
768;12371
764;12372
763;12373
762;12374
760;12375
758;12376
756;12377
754;12378
751;12379
749;12380
748;12381
747;12382
745;12383
745;12384
744;12385
744;12386
743;12387
743;12388
743;12389
744;12390
745;12391
746;12392
746;12393
745;12394
744;12395
744;12396
744;12397
742;12398
741;12399
739;12400
738;12401
737;12402
736;12403
735;12404
735;12405
737;12406
738;12407
740;12408
742;12409
745;12410
747;12411
749;12412
750;12413
751;12414
752;12415
754;12416
755;12417
756;12418
757;12419
758;12420
759;12421
761;12422
762;12423
762;12424
763;12425
763;12426
764;12427
763;12428
763;12429
763;12430
762;12431
762;12432
761;12433
761;12434
761;12435
761;12436
761;12437
760;12438
759;12439
757;12440
752;12441
750;12442
748;12443
745;12444
744;12445
742;12446
741;12447
741;12448
741;12449
741;12450
742;12451
743;12452
746;12453
748;12454
749;12455
750;12456
752;12457
753;12458
755;12459
756;12460
757;12461
757;12462
756;12463
754;12464
751;12465
750;12466
748;12467
747;12468
745;12469
744;12470
742;12471
742;12472
741;12473
741;12474
741;12475
741;12476
740;12477
738;12478
736;12479
735;12480
734;12481
733;12482
733;12483
733;12484
734;12485
735;12486
736;12487
738;12488
739;12489
743;12490
745;12491
746;12492
745;12493
744;12494
744;12495
743;12496
743;12497
744;12498
745;12499
744;12500
744;12501
742;12502
742;12503
742;12504
742;12505
742;12506
741;12507
740;12508
739;12509
738;12510
738;12511
738;12512
738;12513
738;12514
739;12515
740;12516
741;12517
742;12518
743;12519
744;12520
747;12521
749;12522
749;12523
750;12524
751;12525
750;12526
748;12527
747;12528
746;12529
745;12530
743;12531
743;12532
741;12533
741;12534
741;12535
741;12536
741;12537
742;12538
742;12539
740;12540
740;12541
740;12542
740;12543
740;12544
740;12545
742;12546
742;12547
743;12548
743;12549
743;12550
742;12551
741;12552
741;12553
742;12554
741;12555
741;12556
741;12557
742;12558
742;12559
742;12560
741;12561
739;12562
738;12563
736;12564
736;12565
736;12566
737;12567
737;12568
738;12569
740;12570
742;12571
744;12572
745;12573
747;12574
749;12575
750;12576
754;12577
755;12578
756;12579
757;12580
757;12581
758;12582
759;12583
760;12584
760;12585
761;12586
762;12587
762;12588
763;12589
762;12590
763;12591
762;12592
762;12593
762;12594
760;12595
760;12596
760;12597
760;12598
761;12599
761;12600
761;12601
759;12602
758;12603
758;12604
757;12605
758;12606
758;12607
760;12608
761;12609
761;12610
762;12611
763;12612
763;12613
764;12614
765;12615
766;12616
767;12617
767;12618
767;12619
767;12620
767;12621
766;12622
766;12623
765;12624
765;12625
765;12626
765;12627
764;12628
764;12629
764;12630
764;12631
764;12632
764;12633
764;12634
765;12635
765;12636
765;12637
765;12638
765;12639
765;12640
765;12641
765;12642
765;12643
766;12644
766;12645
767;12646
767;12647
767;12648
766;12649
765;12650
760;12651
755;12652
751;12653
745;12654
741;12655
736;12656
727;12657
724;12658
721;12659
719;12660
718;12661
718;12662
717;12663
718;12664
718;12665
719;12666
720;12667
721;12668
723;12669
725;12670
727;12671
729;12672
731;12673
733;12674
736;12675
739;12676
741;12677
744;12678
745;12679
747;12680
749;12681
753;12682
755;12683
757;12684
758;12685
760;12686
761;12687
762;12688
761;12689
760;12690
759;12691
758;12692
758;12693
757;12694
756;12695
755;12696
755;12697
755;12698
755;12699
754;12700
755;12701
755;12702
755;12703
754;12704
753;12705
753;12706
752;12707
752;12708
751;12709
750;12710
750;12711
750;12712
750;12713
751;12714
751;12715
753;12716
754;12717
755;12718
758;12719
760;12720
761;12721
762;12722
762;12723
762;12724
758;12725
756;12726
754;12727
751;12728
749;12729
747;12730
745;12731
745;12732
744;12733
744;12734
744;12735
744;12736
745;12737
743;12738
741;12739
738;12740
735;12741
732;12742
731;12743
729;12744
728;12745
728;12746
729;12747
730;12748
731;12749
735;12750
738;12751
740;12752
742;12753
744;12754
745;12755
748;12756
749;12757
750;12758
751;12759
752;12760
752;12761
753;12762
754;12763
754;12764
755;12765
755;12766
756;12767
756;12768
757;12769
757;12770
756;12771
755;12772
753;12773
748;12774
745;12775
742;12776
740;12777
737;12778
734;12779
730;12780
724;12781
723;12782
722;12783
722;12784
722;12785
723;12786
726;12787
728;12788
729;12789
732;12790
735;12791
737;12792
742;12793
746;12794
748;12795
751;12796
753;12797
755;12798
758;12799
759;12800
760;12801
761;12802
761;12803
761;12804
760;12805
760;12806
760;12807
760;12808
760;12809
760;12810
761;12811
762;12812
762;12813
762;12814
762;12815
762;12816
762;12817
761;12818
761;12819
760;12820
759;12821
759;12822
758;12823
755;12824
754;12825
753;12826
752;12827
751;12828
750;12829
748;12830
746;12831
744;12832
741;12833
738;12834
736;12835
734;12836
730;12837
728;12838
727;12839
726;12840
725;12841
724;12842
724;12843
723;12844
724;12845
724;12846
724;12847
725;12848
725;12849
725;12850
726;12851
726;12852
726;12853
727;12854
728;12855
731;12856
732;12857
733;12858
735;12859
738;12860
740;12861
745;12862
746;12863
746;12864
744;12865
741;12866
739;12867
735;12868
733;12869
732;12870
731;12871
730;12872
731;12873
734;12874
736;12875
738;12876
741;12877
744;12878
747;12879
749;12880
749;12881
748;12882
747;12883
746;12884
746;12885
745;12886
745;12887
744;12888
744;12889
745;12890
745;12891
747;12892
750;12893
751;12894
753;12895
755;12896
757;12897
758;12898
759;12899
759;12900
759;12901
759;12902
759;12903
759;12904
758;12905
757;12906
757;12907
756;12908
755;12909
754;12910
752;12911
751;12912
751;12913
751;12914
751;12915
751;12916
753;12917
753;12918
754;12919
755;12920
755;12921
756;12922
758;12923
758;12924
759;12925
758;12926
758;12927
758;12928
758;12929
758;12930
758;12931
758;12932
756;12933
755;12934
752;12935
752;12936
751;12937
750;12938
749;12939
748;12940
747;12941
747;12942
748;12943
748;12944
747;12945
746;12946
745;12947
743;12948
742;12949
742;12950
741;12951
741;12952
741;12953
741;12954
741;12955
742;12956
742;12957
743;12958
744;12959
745;12960
746;12961
747;12962
748;12963
749;12964
750;12965
751;12966
753;12967
754;12968
755;12969
756;12970
757;12971
758;12972
759;12973
760;12974
761;12975
762;12976
762;12977
762;12978
762;12979
761;12980
759;12981
755;12982
749;12983
744;12984
732;12985
728;12986
724;12987
721;12988
718;12989
716;12990
715;12991
715;12992
716;12993
718;12994
720;12995
723;12996
726;12997
733;12998
737;12999
740;13000
743;13001
746;13002
748;13003
751;13004
753;13005
755;13006
756;13007
757;13008
757;13009
759;13010
759;13011
760;13012
760;13013
760;13014
761;13015
762;13016
762;13017
762;13018
762;13019
761;13020
760;13021
759;13022
758;13023
757;13024
756;13025
754;13026
750;13027
740;13028
735;13029
732;13030
728;13031
726;13032
724;13033
722;13034
721;13035
721;13036
722;13037
724;13038
726;13039
728;13040
733;13041
736;13042
739;13043
740;13044
740;13045
740;13046
739;13047
738;13048
737;13049
737;13050
736;13051
735;13052
734;13053
734;13054
734;13055
734;13056
735;13057
736;13058
738;13059
739;13060
740;13061
741;13062
742;13063
744;13064
745;13065
748;13066
750;13067
751;13068
753;13069
754;13070
756;13071
759;13072
760;13073
761;13074
763;13075
764;13076
765;13077
766;13078
767;13079
768;13080
768;13081
768;13082
768;13083
767;13084
767;13085
767;13086
766;13087
765;13088
764;13089
761;13090
760;13091
759;13092
758;13093
757;13094
756;13095
755;13096
754;13097
754;13098
754;13099
754;13100
754;13101
755;13102
756;13103
757;13104
758;13105
759;13106
759;13107
760;13108
761;13109
