emg;t
746;0
746;1
746;2
746;3
746;4
746;5
746;6
746;7
746;8
746;9
746;10
746;11
746;12
746;13
746;14
746;15
746;16
746;17
746;18
746;19
746;20
746;21
746;22
746;23
747;24
746;25
746;26
746;27
746;28
746;29
746;30
746;31
746;32
746;33
746;34
746;35
746;36
746;37
745;38
746;39
746;40
746;41
746;42
746;43
746;44
746;45
746;46
746;47
746;48
746;49
746;50
746;51
746;52
746;53
746;54
746;55
746;56
746;57
746;58
746;59
746;60
746;61
746;62
746;63
746;64
746;65
746;66
746;67
746;68
746;69
746;70
746;71
746;72
746;73
747;74
746;75
746;76
746;77
747;78
746;79
746;80
746;81
746;82
746;83
746;84
746;85
746;86
746;87
746;88
746;89
746;90
746;91
746;92
746;93
746;94
746;95
746;96
746;97
746;98
746;99
746;100
746;101
746;102
746;103
746;104
746;105
746;106
746;107
746;108
746;109
746;110
746;111
746;112
746;113
746;114
746;115
746;116
746;117
746;118
746;119
746;120
746;121
746;122
746;123
746;124
746;125
746;126
746;127
746;128
746;129
746;130
746;131
746;132
746;133
746;134
746;135
746;136
746;137
746;138
746;139
746;140
746;141
746;142
746;143
746;144
746;145
746;146
746;147
745;148
746;149
746;150
746;151
746;152
745;153
746;154
746;155
746;156
745;157
745;158
745;159
746;160
746;161
746;162
746;163
745;164
746;165
746;166
745;167
745;168
745;169
746;170
746;171
746;172
746;173
746;174
746;175
746;176
746;177
746;178
746;179
746;180
746;181
746;182
746;183
746;184
746;185
746;186
746;187
746;188
746;189
746;190
746;191
746;192
746;193
746;194
746;195
746;196
746;197
746;198
746;199
746;200
746;201
746;202
745;203
745;204
746;205
746;206
746;207
745;208
746;209
745;210
745;211
745;212
745;213
745;214
745;215
746;216
745;217
745;218
745;219
746;220
745;221
746;222
745;223
746;224
746;225
746;226
746;227
746;228
746;229
746;230
746;231
746;232
746;233
746;234
746;235
746;236
746;237
746;238
746;239
746;240
746;241
746;242
746;243
746;244
746;245
746;246
746;247
746;248
746;249
746;250
746;251
746;252
746;253
745;254
746;255
745;256
745;257
746;258
745;259
745;260
745;261
746;262
745;263
746;264
746;265
745;266
745;267
745;268
746;269
746;270
745;271
745;272
746;273
745;274
746;275
746;276
745;277
746;278
745;279
745;280
745;281
746;282
746;283
746;284
746;285
746;286
746;287
746;288
746;289
746;290
746;291
746;292
746;293
746;294
746;295
746;296
746;297
746;298
746;299
746;300
746;301
746;302
746;303
746;304
746;305
746;306
746;307
746;308
746;309
745;310
745;311
746;312
745;313
745;314
745;315
745;316
745;317
746;318
745;319
745;320
745;321
745;322
745;323
745;324
745;325
745;326
745;327
745;328
745;329
745;330
745;331
745;332
745;333
745;334
745;335
745;336
746;337
745;338
745;339
746;340
746;341
746;342
746;343
746;344
746;345
745;346
746;347
745;348
746;349
746;350
746;351
746;352
745;353
746;354
746;355
746;356
746;357
746;358
746;359
746;360
746;361
746;362
745;363
746;364
746;365
745;366
746;367
746;368
745;369
745;370
745;371
745;372
745;373
745;374
745;375
745;376
745;377
745;378
745;379
745;380
745;381
745;382
745;383
745;384
745;385
745;386
745;387
745;388
745;389
745;390
745;391
745;392
745;393
745;394
745;395
745;396
745;397
745;398
745;399
746;400
745;401
746;402
746;403
746;404
746;405
746;406
745;407
746;408
746;409
746;410
746;411
746;412
746;413
746;414
746;415
746;416
746;417
746;418
746;419
746;420
746;421
745;422
746;423
746;424
746;425
746;426
745;427
745;428
745;429
745;430
746;431
745;432
746;433
746;434
745;435
745;436
745;437
745;438
745;439
745;440
745;441
745;442
746;443
745;444
745;445
745;446
746;447
746;448
746;449
746;450
746;451
746;452
746;453
746;454
746;455
746;456
746;457
746;458
746;459
746;460
746;461
746;462
746;463
746;464
746;465
746;466
746;467
746;468
746;469
746;470
746;471
746;472
746;473
745;474
745;475
746;476
745;477
745;478
745;479
745;480
745;481
745;482
745;483
746;484
746;485
745;486
746;487
745;488
745;489
745;490
745;491
745;492
745;493
745;494
745;495
745;496
745;497
745;498
746;499
745;500
745;501
745;502
745;503
745;504
745;505
745;506
746;507
745;508
746;509
745;510
746;511
746;512
745;513
746;514
745;515
746;516
745;517
746;518
746;519
746;520
746;521
746;522
746;523
745;524
746;525
745;526
746;527
746;528
745;529
745;530
745;531
745;532
746;533
745;534
746;535
745;536
746;537
745;538
745;539
745;540
745;541
746;542
746;543
745;544
745;545
745;546
745;547
745;548
745;549
745;550
745;551
745;552
745;553
745;554
745;555
745;556
745;557
745;558
745;559
745;560
745;561
745;562
745;563
745;564
745;565
745;566
745;567
745;568
745;569
745;570
745;571
746;572
745;573
746;574
746;575
746;576
746;577
746;578
746;579
746;580
746;581
746;582
746;583
746;584
746;585
746;586
745;587
745;588
745;589
746;590
746;591
745;592
746;593
745;594
745;595
745;596
745;597
745;598
745;599
745;600
745;601
745;602
745;603
745;604
745;605
745;606
745;607
745;608
745;609
745;610
745;611
745;612
745;613
745;614
745;615
745;616
745;617
745;618
745;619
745;620
745;621
745;622
745;623
745;624
746;625
745;626
745;627
746;628
745;629
746;630
745;631
746;632
746;633
745;634
746;635
745;636
746;637
746;638
746;639
745;640
745;641
745;642
746;643
745;644
745;645
745;646
745;647
745;648
745;649
745;650
745;651
745;652
745;653
745;654
745;655
745;656
745;657
745;658
745;659
745;660
745;661
745;662
745;663
745;664
745;665
745;666
745;667
745;668
745;669
745;670
745;671
745;672
745;673
745;674
745;675
745;676
745;677
745;678
745;679
745;680
745;681
745;682
745;683
745;684
745;685
746;686
745;687
745;688
745;689
746;690
746;691
746;692
746;693
745;694
746;695
746;696
746;697
746;698
745;699
745;700
745;701
745;702
745;703
746;704
745;705
745;706
745;707
745;708
745;709
745;710
745;711
745;712
745;713
745;714
745;715
745;716
745;717
745;718
745;719
745;720
745;721
745;722
745;723
745;724
745;725
745;726
745;727
745;728
745;729
745;730
745;731
745;732
745;733
745;734
745;735
745;736
745;737
745;738
745;739
746;740
746;741
745;742
745;743
746;744
745;745
746;746
745;747
745;748
745;749
745;750
745;751
745;752
746;753
745;754
745;755
745;756
745;757
745;758
745;759
745;760
745;761
745;762
745;763
745;764
745;765
745;766
745;767
745;768
745;769
745;770
745;771
745;772
745;773
745;774
745;775
745;776
745;777
745;778
745;779
745;780
745;781
745;782
745;783
745;784
745;785
745;786
745;787
745;788
745;789
745;790
745;791
745;792
745;793
745;794
745;795
745;796
745;797
745;798
745;799
745;800
745;801
745;802
745;803
746;804
745;805
745;806
745;807
745;808
745;809
746;810
745;811
745;812
745;813
746;814
745;815
745;816
745;817
745;818
745;819
745;820
745;821
745;822
745;823
745;824
745;825
745;826
745;827
745;828
745;829
745;830
745;831
745;832
745;833
745;834
745;835
745;836
745;837
745;838
745;839
745;840
745;841
745;842
745;843
745;844
745;845
745;846
745;847
745;848
745;849
745;850
745;851
746;852
746;853
745;854
746;855
746;856
745;857
745;858
746;859
746;860
745;861
745;862
746;863
746;864
745;865
745;866
746;867
745;868
746;869
745;870
745;871
745;872
745;873
746;874
745;875
745;876
745;877
745;878
745;879
745;880
745;881
745;882
745;883
745;884
745;885
745;886
745;887
745;888
745;889
745;890
745;891
745;892
745;893
745;894
745;895
745;896
745;897
745;898
745;899
745;900
745;901
745;902
745;903
745;904
745;905
745;906
745;907
746;908
746;909
746;910
746;911
745;912
745;913
746;914
746;915
745;916
746;917
746;918
746;919
746;920
745;921
745;922
745;923
746;924
745;925
746;926
746;927
745;928
745;929
745;930
745;931
745;932
745;933
745;934
745;935
745;936
745;937
745;938
745;939
745;940
745;941
745;942
745;943
745;944
745;945
745;946
745;947
745;948
745;949
745;950
745;951
745;952
745;953
745;954
745;955
745;956
745;957
745;958
745;959
745;960
745;961
745;962
745;963
745;964
745;965
746;966
745;967
745;968
746;969
746;970
745;971
746;972
746;973
746;974
745;975
745;976
745;977
746;978
745;979
746;980
745;981
745;982
745;983
745;984
745;985
745;986
746;987
745;988
745;989
745;990
745;991
745;992
745;993
745;994
745;995
745;996
745;997
745;998
745;999
745;1000
745;1001
745;1002
745;1003
745;1004
745;1005
745;1006
745;1007
745;1008
745;1009
745;1010
745;1011
745;1012
745;1013
745;1014
745;1015
745;1016
745;1017
745;1018
745;1019
745;1020
745;1021
745;1022
745;1023
745;1024
745;1025
745;1026
746;1027
746;1028
746;1029
745;1030
745;1031
745;1032
746;1033
745;1034
745;1035
746;1036
745;1037
745;1038
746;1039
745;1040
746;1041
745;1042
745;1043
745;1044
745;1045
745;1046
745;1047
745;1048
745;1049
745;1050
745;1051
745;1052
745;1053
745;1054
745;1055
745;1056
745;1057
745;1058
745;1059
745;1060
745;1061
745;1062
745;1063
745;1064
745;1065
745;1066
745;1067
745;1068
745;1069
745;1070
745;1071
745;1072
745;1073
745;1074
745;1075
745;1076
745;1077
746;1078
745;1079
745;1080
745;1081
745;1082
746;1083
746;1084
746;1085
746;1086
746;1087
746;1088
746;1089
746;1090
745;1091
745;1092
746;1093
746;1094
746;1095
745;1096
746;1097
745;1098
745;1099
746;1100
745;1101
745;1102
745;1103
745;1104
745;1105
745;1106
745;1107
745;1108
745;1109
745;1110
745;1111
745;1112
745;1113
745;1114
745;1115
745;1116
745;1117
745;1118
745;1119
745;1120
745;1121
745;1122
745;1123
745;1124
745;1125
745;1126
745;1127
745;1128
745;1129
745;1130
745;1131
745;1132
745;1133
745;1134
745;1135
745;1136
745;1137
745;1138
745;1139
746;1140
746;1141
745;1142
745;1143
746;1144
746;1145
746;1146
746;1147
746;1148
746;1149
745;1150
745;1151
746;1152
746;1153
745;1154
745;1155
746;1156
745;1157
745;1158
746;1159
745;1160
745;1161
745;1162
745;1163
745;1164
745;1165
745;1166
745;1167
745;1168
745;1169
745;1170
745;1171
745;1172
745;1173
745;1174
745;1175
745;1176
745;1177
745;1178
745;1179
745;1180
745;1181
745;1182
745;1183
745;1184
745;1185
745;1186
745;1187
745;1188
745;1189
745;1190
745;1191
746;1192
745;1193
746;1194
746;1195
746;1196
746;1197
745;1198
746;1199
745;1200
746;1201
745;1202
746;1203
746;1204
746;1205
746;1206
746;1207
746;1208
745;1209
745;1210
745;1211
746;1212
746;1213
746;1214
745;1215
745;1216
745;1217
745;1218
745;1219
745;1220
745;1221
745;1222
745;1223
745;1224
745;1225
745;1226
745;1227
745;1228
745;1229
745;1230
745;1231
745;1232
745;1233
745;1234
745;1235
745;1236
745;1237
745;1238
745;1239
745;1240
745;1241
745;1242
745;1243
745;1244
745;1245
745;1246
745;1247
745;1248
745;1249
745;1250
745;1251
745;1252
745;1253
745;1254
745;1255
745;1256
745;1257
745;1258
746;1259
745;1260
745;1261
745;1262
745;1263
745;1264
745;1265
745;1266
745;1267
745;1268
745;1269
745;1270
745;1271
745;1272
745;1273
745;1274
745;1275
745;1276
745;1277
745;1278
745;1279
745;1280
745;1281
745;1282
745;1283
745;1284
745;1285
745;1286
745;1287
745;1288
745;1289
745;1290
745;1291
745;1292
745;1293
745;1294
745;1295
745;1296
745;1297
745;1298
745;1299
745;1300
745;1301
745;1302
745;1303
745;1304
745;1305
745;1306
745;1307
745;1308
745;1309
745;1310
746;1311
745;1312
746;1313
746;1314
745;1315
746;1316
745;1317
746;1318
745;1319
746;1320
746;1321
746;1322
745;1323
745;1324
746;1325
745;1326
746;1327
745;1328
745;1329
745;1330
745;1331
745;1332
745;1333
745;1334
745;1335
745;1336
745;1337
745;1338
745;1339
745;1340
745;1341
745;1342
745;1343
745;1344
745;1345
745;1346
745;1347
745;1348
745;1349
745;1350
745;1351
745;1352
745;1353
745;1354
746;1355
745;1356
745;1357
746;1358
746;1359
746;1360
746;1361
746;1362
746;1363
746;1364
746;1365
746;1366
746;1367
746;1368
746;1369
746;1370
746;1371
746;1372
747;1373
746;1374
746;1375
746;1376
746;1377
746;1378
746;1379
747;1380
746;1381
747;1382
746;1383
746;1384
746;1385
746;1386
746;1387
746;1388
746;1389
746;1390
746;1391
747;1392
746;1393
746;1394
746;1395
746;1396
746;1397
746;1398
746;1399
746;1400
746;1401
746;1402
746;1403
746;1404
746;1405
746;1406
746;1407
746;1408
746;1409
746;1410
747;1411
746;1412
747;1413
747;1414
747;1415
747;1416
747;1417
747;1418
747;1419
747;1420
747;1421
747;1422
747;1423
747;1424
747;1425
747;1426
747;1427
748;1428
748;1429
748;1430
747;1431
748;1432
748;1433
748;1434
748;1435
747;1436
748;1437
747;1438
747;1439
747;1440
747;1441
747;1442
747;1443
747;1444
747;1445
747;1446
747;1447
747;1448
746;1449
747;1450
747;1451
746;1452
746;1453
747;1454
746;1455
746;1456
746;1457
746;1458
746;1459
746;1460
746;1461
747;1462
746;1463
747;1464
746;1465
747;1466
746;1467
747;1468
747;1469
746;1470
746;1471
747;1472
747;1473
747;1474
747;1475
747;1476
747;1477
747;1478
748;1479
748;1480
747;1481
748;1482
748;1483
748;1484
748;1485
748;1486
748;1487
748;1488
748;1489
748;1490
748;1491
748;1492
748;1493
748;1494
748;1495
748;1496
748;1497
748;1498
748;1499
748;1500
748;1501
748;1502
748;1503
748;1504
748;1505
748;1506
748;1507
748;1508
748;1509
748;1510
748;1511
748;1512
748;1513
748;1514
749;1515
748;1516
749;1517
749;1518
749;1519
749;1520
749;1521
749;1522
749;1523
749;1524
749;1525
749;1526
749;1527
749;1528
749;1529
749;1530
749;1531
749;1532
749;1533
749;1534
749;1535
749;1536
749;1537
749;1538
750;1539
749;1540
749;1541
749;1542
749;1543
750;1544
749;1545
749;1546
750;1547
749;1548
750;1549
749;1550
750;1551
750;1552
749;1553
750;1554
749;1555
750;1556
749;1557
749;1558
749;1559
749;1560
749;1561
749;1562
749;1563
749;1564
749;1565
749;1566
750;1567
750;1568
749;1569
749;1570
749;1571
749;1572
749;1573
749;1574
749;1575
749;1576
749;1577
749;1578
749;1579
750;1580
749;1581
749;1582
749;1583
749;1584
750;1585
750;1586
750;1587
750;1588
750;1589
750;1590
750;1591
751;1592
750;1593
751;1594
751;1595
751;1596
751;1597
751;1598
751;1599
751;1600
750;1601
750;1602
750;1603
750;1604
750;1605
749;1606
749;1607
749;1608
749;1609
748;1610
748;1611
748;1612
748;1613
748;1614
748;1615
748;1616
748;1617
748;1618
748;1619
748;1620
748;1621
749;1622
749;1623
749;1624
749;1625
749;1626
749;1627
749;1628
749;1629
750;1630
750;1631
750;1632
750;1633
750;1634
750;1635
750;1636
750;1637
750;1638
750;1639
750;1640
750;1641
750;1642
751;1643
751;1644
751;1645
751;1646
751;1647
751;1648
751;1649
751;1650
751;1651
751;1652
752;1653
751;1654
752;1655
752;1656
752;1657
752;1658
751;1659
751;1660
751;1661
751;1662
751;1663
750;1664
751;1665
750;1666
750;1667
751;1668
750;1669
750;1670
750;1671
750;1672
750;1673
750;1674
750;1675
750;1676
750;1677
750;1678
750;1679
750;1680
750;1681
750;1682
750;1683
750;1684
750;1685
750;1686
750;1687
750;1688
750;1689
750;1690
750;1691
750;1692
750;1693
750;1694
750;1695
750;1696
750;1697
750;1698
750;1699
750;1700
750;1701
750;1702
750;1703
750;1704
750;1705
750;1706
750;1707
750;1708
749;1709
749;1710
749;1711
749;1712
748;1713
748;1714
748;1715
748;1716
747;1717
747;1718
747;1719
747;1720
746;1721
746;1722
746;1723
746;1724
746;1725
747;1726
747;1727
746;1728
746;1729
746;1730
746;1731
745;1732
745;1733
744;1734
744;1735
744;1736
743;1737
743;1738
742;1739
741;1740
741;1741
740;1742
740;1743
740;1744
739;1745
739;1746
738;1747
738;1748
738;1749
738;1750
738;1751
738;1752
738;1753
737;1754
737;1755
737;1756
737;1757
737;1758
737;1759
736;1760
736;1761
736;1762
736;1763
735;1764
735;1765
735;1766
735;1767
735;1768
735;1769
734;1770
734;1771
734;1772
734;1773
734;1774
734;1775
734;1776
734;1777
734;1778
734;1779
734;1780
734;1781
734;1782
735;1783
735;1784
735;1785
735;1786
735;1787
736;1788
735;1789
735;1790
735;1791
736;1792
735;1793
735;1794
736;1795
735;1796
736;1797
736;1798
736;1799
736;1800
736;1801
736;1802
736;1803
736;1804
736;1805
736;1806
736;1807
736;1808
736;1809
736;1810
736;1811
736;1812
736;1813
736;1814
736;1815
736;1816
736;1817
735;1818
736;1819
735;1820
736;1821
736;1822
736;1823
736;1824
736;1825
736;1826
736;1827
736;1828
736;1829
736;1830
736;1831
736;1832
736;1833
736;1834
736;1835
736;1836
736;1837
736;1838
736;1839
736;1840
736;1841
737;1842
737;1843
737;1844
737;1845
736;1846
736;1847
736;1848
737;1849
737;1850
737;1851
737;1852
737;1853
737;1854
737;1855
737;1856
737;1857
737;1858
738;1859
738;1860
738;1861
738;1862
739;1863
739;1864
739;1865
739;1866
739;1867
739;1868
738;1869
738;1870
738;1871
738;1872
737;1873
737;1874
737;1875
737;1876
736;1877
736;1878
736;1879
737;1880
737;1881
737;1882
737;1883
737;1884
737;1885
738;1886
738;1887
738;1888
738;1889
738;1890
738;1891
738;1892
738;1893
738;1894
739;1895
739;1896
739;1897
738;1898
739;1899
739;1900
739;1901
739;1902
738;1903
738;1904
738;1905
737;1906
737;1907
737;1908
736;1909
736;1910
736;1911
736;1912
736;1913
736;1914
736;1915
737;1916
737;1917
737;1918
737;1919
737;1920
737;1921
738;1922
738;1923
738;1924
737;1925
737;1926
736;1927
736;1928
736;1929
736;1930
736;1931
735;1932
735;1933
735;1934
735;1935
735;1936
735;1937
735;1938
735;1939
734;1940
734;1941
734;1942
734;1943
733;1944
732;1945
732;1946
731;1947
731;1948
731;1949
731;1950
732;1951
732;1952
732;1953
733;1954
733;1955
733;1956
734;1957
734;1958
734;1959
733;1960
733;1961
733;1962
733;1963
733;1964
733;1965
734;1966
734;1967
735;1968
735;1969
735;1970
735;1971
735;1972
734;1973
734;1974
733;1975
733;1976
733;1977
733;1978
733;1979
733;1980
734;1981
734;1982
734;1983
735;1984
735;1985
736;1986
736;1987
736;1988
736;1989
737;1990
736;1991
736;1992
736;1993
736;1994
736;1995
735;1996
736;1997
736;1998
736;1999
737;2000
737;2001
737;2002
737;2003
738;2004
738;2005
738;2006
739;2007
739;2008
739;2009
739;2010
740;2011
740;2012
740;2013
740;2014
739;2015
739;2016
739;2017
738;2018
738;2019
737;2020
737;2021
737;2022
737;2023
736;2024
736;2025
736;2026
736;2027
736;2028
736;2029
736;2030
736;2031
735;2032
735;2033
735;2034
735;2035
736;2036
736;2037
737;2038
737;2039
737;2040
738;2041
738;2042
738;2043
737;2044
737;2045
737;2046
738;2047
739;2048
739;2049
740;2050
741;2051
741;2052
742;2053
741;2054
742;2055
741;2056
740;2057
740;2058
738;2059
737;2060
736;2061
734;2062
733;2063
733;2064
733;2065
732;2066
732;2067
732;2068
732;2069
732;2070
732;2071
732;2072
732;2073
732;2074
732;2075
732;2076
733;2077
733;2078
733;2079
734;2080
734;2081
735;2082
735;2083
736;2084
737;2085
738;2086
739;2087
739;2088
739;2089
739;2090
740;2091
741;2092
742;2093
743;2094
744;2095
744;2096
745;2097
746;2098
746;2099
746;2100
746;2101
746;2102
746;2103
746;2104
746;2105
746;2106
746;2107
746;2108
745;2109
746;2110
745;2111
745;2112
745;2113
745;2114
745;2115
745;2116
745;2117
745;2118
745;2119
745;2120
746;2121
745;2122
746;2123
746;2124
745;2125
745;2126
745;2127
746;2128
745;2129
746;2130
746;2131
747;2132
747;2133
747;2134
747;2135
748;2136
749;2137
750;2138
750;2139
751;2140
752;2141
752;2142
752;2143
752;2144
752;2145
752;2146
751;2147
750;2148
749;2149
749;2150
749;2151
749;2152
749;2153
749;2154
749;2155
749;2156
748;2157
748;2158
747;2159
746;2160
744;2161
744;2162
744;2163
744;2164
744;2165
744;2166
744;2167
745;2168
745;2169
746;2170
746;2171
747;2172
749;2173
749;2174
750;2175
751;2176
751;2177
751;2178
753;2179
753;2180
755;2181
755;2182
756;2183
757;2184
758;2185
760;2186
761;2187
761;2188
762;2189
763;2190
764;2191
766;2192
766;2193
767;2194
767;2195
768;2196
768;2197
768;2198
768;2199
768;2200
768;2201
769;2202
770;2203
770;2204
769;2205
769;2206
767;2207
766;2208
765;2209
762;2210
760;2211
760;2212
759;2213
757;2214
757;2215
756;2216
755;2217
754;2218
754;2219
754;2220
754;2221
754;2222
755;2223
755;2224
756;2225
756;2226
757;2227
758;2228
758;2229
758;2230
757;2231
757;2232
756;2233
755;2234
754;2235
753;2236
753;2237
752;2238
752;2239
751;2240
751;2241
751;2242
750;2243
750;2244
750;2245
750;2246
750;2247
750;2248
751;2249
751;2250
751;2251
751;2252
751;2253
751;2254
751;2255
751;2256
751;2257
752;2258
752;2259
753;2260
753;2261
755;2262
756;2263
757;2264
759;2265
760;2266
762;2267
762;2268
762;2269
762;2270
762;2271
761;2272
760;2273
759;2274
758;2275
757;2276
756;2277
754;2278
754;2279
753;2280
753;2281
753;2282
753;2283
753;2284
753;2285
752;2286
752;2287
752;2288
751;2289
750;2290
749;2291
749;2292
748;2293
748;2294
748;2295
747;2296
747;2297
747;2298
747;2299
747;2300
748;2301
749;2302
751;2303
752;2304
752;2305
753;2306
753;2307
754;2308
755;2309
755;2310
755;2311
756;2312
756;2313
756;2314
756;2315
756;2316
755;2317
755;2318
755;2319
755;2320
755;2321
755;2322
755;2323
754;2324
754;2325
754;2326
754;2327
754;2328
754;2329
754;2330
754;2331
754;2332
754;2333
754;2334
755;2335
755;2336
755;2337
756;2338
756;2339
757;2340
757;2341
758;2342
758;2343
758;2344
759;2345
759;2346
760;2347
761;2348
762;2349
763;2350
764;2351
766;2352
766;2353
766;2354
766;2355
765;2356
764;2357
762;2358
761;2359
759;2360
758;2361
757;2362
755;2363
754;2364
753;2365
753;2366
752;2367
752;2368
753;2369
753;2370
752;2371
752;2372
752;2373
753;2374
753;2375
753;2376
754;2377
754;2378
754;2379
754;2380
754;2381
754;2382
753;2383
753;2384
753;2385
753;2386
754;2387
754;2388
755;2389
756;2390
757;2391
758;2392
758;2393
758;2394
759;2395
760;2396
761;2397
762;2398
761;2399
762;2400
763;2401
763;2402
763;2403
763;2404
762;2405
761;2406
760;2407
759;2408
758;2409
757;2410
756;2411
756;2412
755;2413
754;2414
754;2415
754;2416
755;2417
755;2418
755;2419
757;2420
758;2421
759;2422
760;2423
760;2424
760;2425
760;2426
760;2427
759;2428
759;2429
758;2430
758;2431
758;2432
758;2433
757;2434
757;2435
755;2436
754;2437
752;2438
751;2439
750;2440
750;2441
750;2442
750;2443
752;2444
754;2445
754;2446
755;2447
755;2448
755;2449
755;2450
756;2451
756;2452
757;2453
757;2454
757;2455
757;2456
756;2457
756;2458
755;2459
755;2460
754;2461
754;2462
754;2463
753;2464
753;2465
753;2466
752;2467
752;2468
751;2469
751;2470
750;2471
750;2472
750;2473
750;2474
751;2475
751;2476
751;2477
752;2478
752;2479
752;2480
752;2481
753;2482
752;2483
752;2484
752;2485
753;2486
753;2487
753;2488
753;2489
754;2490
754;2491
754;2492
755;2493
757;2494
757;2495
758;2496
758;2497
758;2498
759;2499
758;2500
758;2501
758;2502
758;2503
759;2504
760;2505
762;2506
763;2507
763;2508
764;2509
765;2510
766;2511
767;2512
768;2513
768;2514
769;2515
769;2516
769;2517
770;2518
769;2519
770;2520
769;2521
769;2522
769;2523
768;2524
767;2525
767;2526
766;2527
766;2528
766;2529
766;2530
765;2531
765;2532
765;2533
765;2534
764;2535
764;2536
764;2537
765;2538
765;2539
766;2540
767;2541
767;2542
767;2543
767;2544
767;2545
767;2546
766;2547
765;2548
764;2549
762;2550
761;2551
761;2552
760;2553
760;2554
759;2555
759;2556
759;2557
759;2558
759;2559
760;2560
760;2561
762;2562
763;2563
764;2564
766;2565
767;2566
768;2567
770;2568
770;2569
769;2570
768;2571
766;2572
765;2573
763;2574
762;2575
761;2576
761;2577
760;2578
760;2579
757;2580
756;2581
755;2582
754;2583
753;2584
752;2585
752;2586
753;2587
753;2588
753;2589
754;2590
753;2591
752;2592
749;2593
748;2594
748;2595
748;2596
749;2597
750;2598
752;2599
753;2600
755;2601
755;2602
756;2603
757;2604
758;2605
759;2606
760;2607
761;2608
762;2609
763;2610
764;2611
764;2612
765;2613
765;2614
766;2615
766;2616
767;2617
767;2618
767;2619
767;2620
767;2621
767;2622
767;2623
766;2624
766;2625
765;2626
764;2627
764;2628
764;2629
763;2630
763;2631
762;2632
761;2633
761;2634
760;2635
759;2636
759;2637
759;2638
759;2639
759;2640
759;2641
758;2642
757;2643
755;2644
754;2645
755;2646
756;2647
757;2648
761;2649
763;2650
763;2651
764;2652
763;2653
763;2654
762;2655
761;2656
760;2657
760;2658
760;2659
759;2660
760;2661
761;2662
762;2663
763;2664
764;2665
765;2666
767;2667
768;2668
768;2669
768;2670
768;2671
768;2672
767;2673
765;2674
763;2675
761;2676
760;2677
759;2678
755;2679
754;2680
752;2681
751;2682
750;2683
749;2684
748;2685
748;2686
747;2687
747;2688
745;2689
744;2690
744;2691
742;2692
742;2693
742;2694
742;2695
743;2696
744;2697
744;2698
745;2699
745;2700
745;2701
745;2702
745;2703
745;2704
745;2705
745;2706
746;2707
747;2708
748;2709
751;2710
753;2711
755;2712
756;2713
758;2714
759;2715
761;2716
762;2717
763;2718
764;2719
764;2720
765;2721
766;2722
766;2723
766;2724
767;2725
767;2726
767;2727
767;2728
765;2729
765;2730
764;2731
763;2732
763;2733
763;2734
763;2735
764;2736
763;2737
763;2738
763;2739
763;2740
763;2741
763;2742
764;2743
764;2744
765;2745
765;2746
766;2747
765;2748
765;2749
765;2750
764;2751
764;2752
765;2753
764;2754
764;2755
764;2756
764;2757
764;2758
764;2759
765;2760
764;2761
763;2762
762;2763
761;2764
761;2765
758;2766
757;2767
756;2768
755;2769
754;2770
753;2771
752;2772
751;2773
751;2774
751;2775
750;2776
749;2777
748;2778
748;2779
746;2780
744;2781
742;2782
739;2783
736;2784
733;2785
731;2786
730;2787
728;2788
726;2789
725;2790
723;2791
723;2792
723;2793
725;2794
725;2795
727;2796
730;2797
732;2798
733;2799
734;2800
735;2801
737;2802
741;2803
742;2804
743;2805
744;2806
745;2807
746;2808
747;2809
747;2810
747;2811
747;2812
747;2813
746;2814
746;2815
746;2816
747;2817
748;2818
748;2819
748;2820
748;2821
748;2822
746;2823
745;2824
744;2825
743;2826
742;2827
739;2828
738;2829
737;2830
736;2831
736;2832
735;2833
734;2834
734;2835
734;2836
735;2837
735;2838
735;2839
736;2840
738;2841
739;2842
739;2843
739;2844
739;2845
739;2846
739;2847
739;2848
738;2849
738;2850
737;2851
735;2852
730;2853
727;2854
725;2855
723;2856
722;2857
722;2858
722;2859
722;2860
724;2861
725;2862
726;2863
726;2864
727;2865
728;2866
728;2867
729;2868
729;2869
729;2870
730;2871
731;2872
732;2873
732;2874
732;2875
732;2876
733;2877
733;2878
733;2879
734;2880
734;2881
734;2882
735;2883
735;2884
735;2885
735;2886
735;2887
735;2888
735;2889
735;2890
735;2891
734;2892
734;2893
734;2894
734;2895
734;2896
734;2897
735;2898
735;2899
736;2900
736;2901
737;2902
737;2903
738;2904
738;2905
738;2906
738;2907
738;2908
738;2909
738;2910
738;2911
738;2912
739;2913
739;2914
740;2915
740;2916
741;2917
742;2918
742;2919
743;2920
744;2921
744;2922
744;2923
744;2924
743;2925
743;2926
742;2927
742;2928
741;2929
741;2930
741;2931
741;2932
740;2933
740;2934
740;2935
740;2936
740;2937
741;2938
741;2939
741;2940
742;2941
742;2942
743;2943
743;2944
743;2945
742;2946
742;2947
741;2948
741;2949
740;2950
739;2951
738;2952
738;2953
738;2954
738;2955
738;2956
738;2957
738;2958
736;2959
736;2960
734;2961
733;2962
732;2963
729;2964
726;2965
725;2966
723;2967
722;2968
721;2969
720;2970
721;2971
722;2972
724;2973
726;2974
727;2975
728;2976
729;2977
730;2978
730;2979
730;2980
730;2981
731;2982
730;2983
729;2984
728;2985
728;2986
727;2987
726;2988
726;2989
727;2990
728;2991
729;2992
730;2993
731;2994
732;2995
732;2996
733;2997
734;2998
735;2999
735;3000
736;3001
737;3002
738;3003
738;3004
738;3005
738;3006
737;3007
736;3008
735;3009
735;3010
735;3011
734;3012
734;3013
733;3014
733;3015
733;3016
733;3017
734;3018
734;3019
734;3020
735;3021
736;3022
737;3023
737;3024
738;3025
738;3026
738;3027
737;3028
735;3029
733;3030
731;3031
729;3032
725;3033
723;3034
722;3035
720;3036
720;3037
719;3038
717;3039
718;3040
719;3041
720;3042
722;3043
725;3044
728;3045
734;3046
737;3047
739;3048
741;3049
743;3050
744;3051
746;3052
746;3053
747;3054
747;3055
748;3056
748;3057
749;3058
749;3059
748;3060
747;3061
746;3062
744;3063
742;3064
740;3065
739;3066
738;3067
736;3068
735;3069
732;3070
731;3071
729;3072
728;3073
726;3074
725;3075
725;3076
725;3077
724;3078
724;3079
724;3080
724;3081
724;3082
726;3083
727;3084
727;3085
728;3086
729;3087
729;3088
729;3089
729;3090
729;3091
729;3092
729;3093
730;3094
731;3095
733;3096
734;3097
734;3098
735;3099
735;3100
736;3101
736;3102
736;3103
736;3104
736;3105
737;3106
738;3107
740;3108
741;3109
741;3110
741;3111
740;3112
739;3113
737;3114
732;3115
729;3116
727;3117
724;3118
722;3119
721;3120
719;3121
718;3122
719;3123
719;3124
721;3125
722;3126
725;3127
726;3128
728;3129
728;3130
729;3131
729;3132
729;3133
729;3134
729;3135
729;3136
729;3137
729;3138
728;3139
728;3140
727;3141
727;3142
727;3143
726;3144
726;3145
725;3146
725;3147
726;3148
726;3149
726;3150
726;3151
725;3152
725;3153
724;3154
724;3155
723;3156
723;3157
722;3158
720;3159
719;3160
719;3161
718;3162
717;3163
716;3164
717;3165
718;3166
719;3167
720;3168
721;3169
722;3170
724;3171
724;3172
724;3173
725;3174
725;3175
726;3176
727;3177
728;3178
728;3179
728;3180
728;3181
729;3182
729;3183
729;3184
729;3185
729;3186
729;3187
728;3188
728;3189
728;3190
728;3191
728;3192
728;3193
727;3194
727;3195
728;3196
729;3197
729;3198
731;3199
731;3200
732;3201
733;3202
733;3203
732;3204
731;3205
731;3206
730;3207
729;3208
728;3209
727;3210
727;3211
727;3212
726;3213
726;3214
725;3215
725;3216
724;3217
723;3218
722;3219
722;3220
721;3221
721;3222
721;3223
722;3224
723;3225
724;3226
727;3227
729;3228
731;3229
732;3230
734;3231
735;3232
736;3233
737;3234
737;3235
738;3236
738;3237
738;3238
738;3239
737;3240
737;3241
737;3242
737;3243
737;3244
737;3245
736;3246
736;3247
735;3248
734;3249
734;3250
734;3251
734;3252
734;3253
733;3254
733;3255
731;3256
730;3257
728;3258
729;3259
729;3260
729;3261
730;3262
730;3263
730;3264
730;3265
730;3266
730;3267
730;3268
730;3269
731;3270
732;3271
734;3272
735;3273
737;3274
738;3275
740;3276
743;3277
744;3278
745;3279
745;3280
744;3281
743;3282
741;3283
741;3284
740;3285
739;3286
739;3287
739;3288
738;3289
738;3290
738;3291
737;3292
736;3293
734;3294
731;3295
729;3296
726;3297
723;3298
721;3299
719;3300
717;3301
716;3302
716;3303
717;3304
718;3305
719;3306
720;3307
723;3308
723;3309
725;3310
725;3311
727;3312
728;3313
731;3314
732;3315
734;3316
735;3317
736;3318
738;3319
740;3320
742;3321
742;3322
742;3323
742;3324
742;3325
742;3326
742;3327
742;3328
742;3329
741;3330
740;3331
739;3332
737;3333
736;3334
735;3335
735;3336
734;3337
734;3338
734;3339
735;3340
735;3341
736;3342
736;3343
737;3344
738;3345
738;3346
738;3347
737;3348
736;3349
734;3350
731;3351
729;3352
729;3353
728;3354
728;3355
728;3356
727;3357
727;3358
726;3359
725;3360
725;3361
724;3362
724;3363
724;3364
725;3365
726;3366
728;3367
729;3368
731;3369
734;3370
735;3371
736;3372
736;3373
737;3374
737;3375
738;3376
739;3377
741;3378
742;3379
743;3380
744;3381
745;3382
745;3383
744;3384
743;3385
743;3386
742;3387
741;3388
738;3389
736;3390
735;3391
733;3392
731;3393
729;3394
728;3395
728;3396
729;3397
729;3398
730;3399
731;3400
731;3401
730;3402
730;3403
729;3404
728;3405
727;3406
727;3407
727;3408
727;3409
728;3410
729;3411
729;3412
730;3413
731;3414
732;3415
733;3416
735;3417
736;3418
738;3419
740;3420
744;3421
746;3422
747;3423
749;3424
750;3425
750;3426
751;3427
752;3428
753;3429
752;3430
752;3431
752;3432
752;3433
751;3434
751;3435
751;3436
750;3437
750;3438
747;3439
744;3440
741;3441
738;3442
735;3443
732;3444
729;3445
728;3446
728;3447
729;3448
729;3449
731;3450
733;3451
734;3452
734;3453
735;3454
736;3455
737;3456
738;3457
739;3458
739;3459
739;3460
740;3461
741;3462
741;3463
743;3464
744;3465
745;3466
746;3467
746;3468
747;3469
747;3470
747;3471
746;3472
747;3473
747;3474
747;3475
745;3476
745;3477
744;3478
744;3479
743;3480
742;3481
742;3482
742;3483
742;3484
742;3485
743;3486
744;3487
745;3488
746;3489
748;3490
748;3491
749;3492
749;3493
750;3494
750;3495
749;3496
749;3497
749;3498
748;3499
748;3500
747;3501
746;3502
745;3503
743;3504
740;3505
738;3506
733;3507
729;3508
727;3509
726;3510
725;3511
724;3512
724;3513
724;3514
725;3515
726;3516
727;3517
729;3518
731;3519
735;3520
737;3521
739;3522
741;3523
742;3524
744;3525
747;3526
749;3527
751;3528
752;3529
754;3530
755;3531
755;3532
755;3533
755;3534
754;3535
752;3536
751;3537
749;3538
748;3539
747;3540
746;3541
745;3542
744;3543
742;3544
738;3545
736;3546
735;3547
734;3548
734;3549
734;3550
735;3551
736;3552
737;3553
739;3554
739;3555
740;3556
741;3557
739;3558
738;3559
737;3560
735;3561
734;3562
732;3563
732;3564
733;3565
734;3566
734;3567
734;3568
734;3569
734;3570
734;3571
735;3572
736;3573
736;3574
737;3575
739;3576
740;3577
742;3578
743;3579
744;3580
745;3581
743;3582
742;3583
741;3584
741;3585
740;3586
740;3587
740;3588
740;3589
741;3590
742;3591
743;3592
745;3593
747;3594
749;3595
750;3596
751;3597
752;3598
753;3599
754;3600
755;3601
756;3602
757;3603
757;3604
757;3605
757;3606
756;3607
755;3608
754;3609
753;3610
753;3611
753;3612
753;3613
752;3614
751;3615
750;3616
749;3617
748;3618
747;3619
747;3620
747;3621
748;3622
750;3623
751;3624
755;3625
757;3626
759;3627
760;3628
761;3629
760;3630
759;3631
757;3632
755;3633
754;3634
753;3635
751;3636
750;3637
748;3638
745;3639
743;3640
741;3641
739;3642
736;3643
734;3644
732;3645
731;3646
730;3647
730;3648
730;3649
732;3650
733;3651
734;3652
736;3653
738;3654
739;3655
741;3656
742;3657
742;3658
743;3659
744;3660
744;3661
746;3662
747;3663
747;3664
747;3665
748;3666
748;3667
748;3668
749;3669
749;3670
749;3671
750;3672
751;3673
752;3674
753;3675
753;3676
754;3677
753;3678
752;3679
751;3680
750;3681
750;3682
750;3683
749;3684
748;3685
748;3686
747;3687
745;3688
745;3689
743;3690
741;3691
738;3692
737;3693
734;3694
734;3695
734;3696
734;3697
736;3698
737;3699
741;3700
743;3701
745;3702
747;3703
748;3704
750;3705
752;3706
753;3707
754;3708
755;3709
756;3710
756;3711
754;3712
752;3713
751;3714
749;3715
748;3716
747;3717
746;3718
745;3719
746;3720
746;3721
746;3722
746;3723
747;3724
747;3725
746;3726
746;3727
745;3728
745;3729
745;3730
745;3731
745;3732
745;3733
745;3734
745;3735
744;3736
740;3737
738;3738
736;3739
735;3740
734;3741
733;3742
733;3743
733;3744
733;3745
733;3746
735;3747
736;3748
739;3749
740;3750
742;3751
743;3752
744;3753
745;3754
748;3755
749;3756
750;3757
751;3758
752;3759
753;3760
754;3761
753;3762
752;3763
751;3764
750;3765
749;3766
749;3767
749;3768
749;3769
750;3770
750;3771
751;3772
752;3773
753;3774
754;3775
754;3776
754;3777
754;3778
754;3779
752;3780
752;3781
751;3782
750;3783
748;3784
746;3785
739;3786
735;3787
732;3788
729;3789
726;3790
724;3791
722;3792
722;3793
723;3794
723;3795
724;3796
725;3797
726;3798
727;3799
727;3800
727;3801
727;3802
728;3803
728;3804
732;3805
734;3806
736;3807
739;3808
741;3809
743;3810
745;3811
750;3812
752;3813
755;3814
757;3815
758;3816
759;3817
762;3818
763;3819
764;3820
764;3821
764;3822
764;3823
765;3824
764;3825
764;3826
764;3827
763;3828
763;3829
761;3830
760;3831
759;3832
758;3833
757;3834
755;3835
754;3836
753;3837
753;3838
753;3839
752;3840
752;3841
752;3842
750;3843
749;3844
747;3845
745;3846
744;3847
742;3848
740;3849
739;3850
738;3851
737;3852
736;3853
736;3854
738;3855
738;3856
740;3857
741;3858
742;3859
742;3860
742;3861
741;3862
741;3863
739;3864
738;3865
737;3866
736;3867
735;3868
736;3869
737;3870
739;3871
741;3872
743;3873
746;3874
747;3875
748;3876
749;3877
750;3878
751;3879
754;3880
754;3881
755;3882
756;3883
757;3884
757;3885
759;3886
760;3887
762;3888
763;3889
763;3890
763;3891
763;3892
762;3893
760;3894
759;3895
758;3896
756;3897
753;3898
747;3899
745;3900
743;3901
742;3902
742;3903
742;3904
742;3905
742;3906
742;3907
742;3908
743;3909
743;3910
742;3911
742;3912
741;3913
741;3914
741;3915
740;3916
741;3917
743;3918
744;3919
745;3920
747;3921
748;3922
750;3923
753;3924
754;3925
755;3926
756;3927
756;3928
757;3929
759;3930
760;3931
761;3932
761;3933
760;3934
759;3935
758;3936
757;3937
756;3938
756;3939
756;3940
755;3941
755;3942
754;3943
752;3944
750;3945
747;3946
745;3947
741;3948
739;3949
738;3950
738;3951
739;3952
741;3953
742;3954
746;3955
747;3956
748;3957
749;3958
750;3959
751;3960
754;3961
754;3962
756;3963
757;3964
758;3965
758;3966
758;3967
759;3968
759;3969
760;3970
759;3971
759;3972
758;3973
756;3974
755;3975
753;3976
751;3977
749;3978
746;3979
745;3980
743;3981
741;3982
740;3983
739;3984
739;3985
739;3986
741;3987
742;3988
743;3989
745;3990
745;3991
746;3992
747;3993
749;3994
749;3995
749;3996
749;3997
749;3998
749;3999
749;4000
750;4001
750;4002
751;4003
753;4004
753;4005
754;4006
755;4007
756;4008
757;4009
758;4010
759;4011
759;4012
760;4013
761;4014
761;4015
763;4016
763;4017
765;4018
765;4019
766;4020
766;4021
764;4022
764;4023
763;4024
762;4025
760;4026
760;4027
760;4028
760;4029
761;4030
761;4031
762;4032
762;4033
762;4034
760;4035
759;4036
758;4037
757;4038
756;4039
754;4040
752;4041
750;4042
749;4043
748;4044
747;4045
746;4046
747;4047
747;4048
748;4049
749;4050
749;4051
750;4052
752;4053
752;4054
753;4055
752;4056
751;4057
751;4058
750;4059
749;4060
749;4061
749;4062
748;4063
748;4064
747;4065
747;4066
747;4067
748;4068
749;4069
749;4070
750;4071
750;4072
749;4073
748;4074
747;4075
747;4076
746;4077
747;4078
747;4079
748;4080
749;4081
750;4082
750;4083
750;4084
750;4085
750;4086
751;4087
751;4088
751;4089
753;4090
754;4091
754;4092
755;4093
756;4094
757;4095
758;4096
760;4097
761;4098
762;4099
763;4100
764;4101
765;4102
765;4103
766;4104
765;4105
764;4106
763;4107
762;4108
761;4109
761;4110
761;4111
761;4112
762;4113
761;4114
762;4115
760;4116
759;4117
758;4118
756;4119
755;4120
754;4121
755;4122
756;4123
757;4124
759;4125
760;4126
764;4127
765;4128
764;4129
764;4130
763;4131
762;4132
759;4133
758;4134
757;4135
756;4136
755;4137
754;4138
751;4139
750;4140
749;4141
749;4142
748;4143
748;4144
747;4145
747;4146
747;4147
747;4148
747;4149
746;4150
745;4151
743;4152
743;4153
743;4154
742;4155
743;4156
743;4157
742;4158
742;4159
743;4160
743;4161
744;4162
745;4163
745;4164
745;4165
744;4166
744;4167
744;4168
745;4169
744;4170
745;4171
745;4172
745;4173
746;4174
747;4175
749;4176
750;4177
750;4178
752;4179
753;4180
755;4181
755;4182
754;4183
752;4184
750;4185
749;4186
748;4187
747;4188
747;4189
748;4190
748;4191
749;4192
750;4193
750;4194
751;4195
750;4196
749;4197
748;4198
747;4199
747;4200
749;4201
750;4202
752;4203
754;4204
756;4205
757;4206
759;4207
760;4208
760;4209
760;4210
761;4211
761;4212
761;4213
761;4214
761;4215
760;4216
759;4217
756;4218
749;4219
745;4220
742;4221
739;4222
736;4223
735;4224
733;4225
732;4226
733;4227
733;4228
735;4229
736;4230
738;4231
741;4232
743;4233
744;4234
746;4235
747;4236
748;4237
750;4238
751;4239
751;4240
752;4241
752;4242
753;4243
756;4244
757;4245
759;4246
760;4247
762;4248
764;4249
766;4250
767;4251
768;4252
768;4253
768;4254
768;4255
768;4256
766;4257
764;4258
762;4259
760;4260
756;4261
752;4262
742;4263
738;4264
734;4265
731;4266
728;4267
727;4268
728;4269
729;4270
732;4271
734;4272
738;4273
740;4274
742;4275
742;4276
742;4277
743;4278
743;4279
744;4280
745;4281
747;4282
748;4283
750;4284
751;4285
751;4286
752;4287
754;4288
755;4289
757;4290
759;4291
760;4292
762;4293
763;4294
763;4295
763;4296
762;4297
761;4298
760;4299
758;4300
757;4301
757;4302
757;4303
757;4304
758;4305
758;4306
758;4307
759;4308
759;4309
759;4310
760;4311
760;4312
761;4313
762;4314
762;4315
763;4316
763;4317
764;4318
765;4319
764;4320
765;4321
765;4322
765;4323
765;4324
765;4325
765;4326
764;4327
762;4328
759;4329
756;4330
750;4331
747;4332
745;4333
743;4334
742;4335
741;4336
740;4337
741;4338
741;4339
742;4340
743;4341
745;4342
746;4343
749;4344
750;4345
751;4346
753;4347
754;4348
755;4349
758;4350
759;4351
760;4352
761;4353
761;4354
762;4355
763;4356
763;4357
764;4358
764;4359
763;4360
762;4361
758;4362
750;4363
746;4364
743;4365
739;4366
737;4367
737;4368
738;4369
739;4370
741;4371
743;4372
745;4373
747;4374
751;4375
752;4376
754;4377
755;4378
756;4379
757;4380
758;4381
758;4382
758;4383
758;4384
758;4385
758;4386
759;4387
760;4388
760;4389
760;4390
760;4391
760;4392
758;4393
753;4394
751;4395
749;4396
747;4397
746;4398
746;4399
745;4400
745;4401
745;4402
745;4403
745;4404
745;4405
746;4406
746;4407
747;4408
748;4409
749;4410
750;4411
753;4412
754;4413
755;4414
756;4415
758;4416
759;4417
760;4418
760;4419
760;4420
759;4421
757;4422
755;4423
752;4424
751;4425
750;4426
750;4427
750;4428
750;4429
751;4430
752;4431
753;4432
755;4433
757;4434
759;4435
760;4436
762;4437
763;4438
763;4439
763;4440
763;4441
763;4442
764;4443
764;4444
765;4445
765;4446
765;4447
766;4448
767;4449
768;4450
769;4451
768;4452
768;4453
767;4454
761;4455
757;4456
753;4457
750;4458
746;4459
743;4460
741;4461
739;4462
738;4463
739;4464
740;4465
741;4466
742;4467
743;4468
744;4469
744;4470
745;4471
745;4472
746;4473
749;4474
749;4475
750;4476
751;4477
752;4478
754;4479
757;4480
759;4481
760;4482
762;4483
763;4484
764;4485
766;4486
767;4487
768;4488
768;4489
769;4490
769;4491
769;4492
769;4493
768;4494
767;4495
764;4496
762;4497
759;4498
755;4499
754;4500
753;4501
752;4502
752;4503
753;4504
754;4505
755;4506
755;4507
756;4508
756;4509
757;4510
757;4511
757;4512
757;4513
758;4514
758;4515
758;4516
754;4517
752;4518
749;4519
747;4520
746;4521
744;4522
743;4523
743;4524
744;4525
744;4526
745;4527
746;4528
746;4529
746;4530
746;4531
746;4532
745;4533
745;4534
743;4535
742;4536
742;4537
743;4538
743;4539
744;4540
746;4541
746;4542
745;4543
744;4544
743;4545
742;4546
741;4547
741;4548
741;4549
742;4550
743;4551
744;4552
746;4553
750;4554
752;4555
755;4556
757;4557
758;4558
760;4559
762;4560
763;4561
764;4562
764;4563
763;4564
762;4565
759;4566
758;4567
758;4568
756;4569
755;4570
755;4571
753;4572
752;4573
751;4574
751;4575
751;4576
751;4577
752;4578
753;4579
754;4580
755;4581
757;4582
758;4583
761;4584
762;4585
763;4586
764;4587
764;4588
763;4589
761;4590
757;4591
756;4592
754;4593
753;4594
752;4595
752;4596
751;4597
751;4598
750;4599
751;4600
750;4601
750;4602
750;4603
749;4604
749;4605
747;4606
744;4607
741;4608
735;4609
733;4610
731;4611
729;4612
728;4613
728;4614
729;4615
731;4616
733;4617
734;4618
736;4619
738;4620
744;4621
746;4622
748;4623
749;4624
749;4625
749;4626
750;4627
749;4628
750;4629
749;4630
750;4631
751;4632
752;4633
755;4634
757;4635
758;4636
758;4637
759;4638
759;4639
760;4640
759;4641
760;4642
759;4643
759;4644
759;4645
760;4646
761;4647
762;4648
763;4649
764;4650
765;4651
766;4652
767;4653
768;4654
768;4655
766;4656
763;4657
761;4658
754;4659
750;4660
747;4661
743;4662
741;4663
739;4664
738;4665
739;4666
740;4667
740;4668
741;4669
742;4670
745;4671
746;4672
748;4673
750;4674
752;4675
753;4676
757;4677
758;4678
760;4679
762;4680
763;4681
765;4682
768;4683
769;4684
770;4685
770;4686
770;4687
771;4688
771;4689
770;4690
769;4691
768;4692
766;4693
765;4694
764;4695
759;4696
757;4697
756;4698
754;4699
753;4700
751;4701
747;4702
745;4703
743;4704
740;4705
738;4706
735;4707
734;4708
733;4709
734;4710
735;4711
737;4712
739;4713
742;4714
748;4715
751;4716
753;4717
755;4718
757;4719
759;4720
761;4721
761;4722
761;4723
760;4724
758;4725
757;4726
755;4727
754;4728
754;4729
754;4730
753;4731
752;4732
752;4733
751;4734
751;4735
750;4736
749;4737
748;4738
749;4739
749;4740
751;4741
752;4742
753;4743
755;4744
756;4745
759;4746
760;4747
760;4748
761;4749
762;4750
763;4751
765;4752
765;4753
766;4754
766;4755
767;4756
767;4757
767;4758
767;4759
766;4760
766;4761
766;4762
765;4763
764;4764
764;4765
762;4766
760;4767
758;4768
755;4769
752;4770
749;4771
748;4772
747;4773
746;4774
746;4775
745;4776
745;4777
745;4778
745;4779
743;4780
742;4781
741;4782
740;4783
740;4784
741;4785
743;4786
744;4787
746;4788
749;4789
751;4790
753;4791
754;4792
756;4793
758;4794
759;4795
762;4796
764;4797
765;4798
766;4799
767;4800
768;4801
768;4802
769;4803
769;4804
768;4805
769;4806
769;4807
766;4808
763;4809
761;4810
757;4811
754;4812
751;4813
749;4814
748;4815
747;4816
746;4817
745;4818
743;4819
742;4820
742;4821
741;4822
742;4823
743;4824
744;4825
745;4826
747;4827
748;4828
750;4829
751;4830
752;4831
753;4832
755;4833
756;4834
757;4835
757;4836
757;4837
757;4838
758;4839
758;4840
758;4841
758;4842
757;4843
755;4844
748;4845
743;4846
738;4847
733;4848
730;4849
727;4850
724;4851
724;4852
724;4853
724;4854
725;4855
726;4856
727;4857
730;4858
731;4859
732;4860
734;4861
736;4862
738;4863
744;4864
746;4865
749;4866
752;4867
754;4868
756;4869
760;4870
761;4871
762;4872
763;4873
764;4874
765;4875
766;4876
767;4877
767;4878
768;4879
768;4880
767;4881
767;4882
766;4883
766;4884
765;4885
764;4886
763;4887
763;4888
761;4889
761;4890
761;4891
761;4892
761;4893
762;4894
761;4895
761;4896
762;4897
761;4898
760;4899
758;4900
756;4901
755;4902
754;4903
752;4904
750;4905
749;4906
747;4907
747;4908
747;4909
747;4910
747;4911
747;4912
748;4913
749;4914
750;4915
751;4916
752;4917
753;4918
754;4919
755;4920
756;4921
757;4922
758;4923
759;4924
760;4925
762;4926
762;4927
762;4928
763;4929
763;4930
763;4931
763;4932
763;4933
763;4934
763;4935
763;4936
764;4937
758;4938
755;4939
751;4940
747;4941
744;4942
741;4943
738;4944
738;4945
738;4946
739;4947
740;4948
742;4949
745;4950
748;4951
749;4952
751;4953
752;4954
751;4955
751;4956
748;4957
748;4958
747;4959
746;4960
745;4961
745;4962
746;4963
747;4964
749;4965
750;4966
751;4967
753;4968
757;4969
759;4970
761;4971
763;4972
764;4973
766;4974
767;4975
767;4976
767;4977
766;4978
765;4979
763;4980
761;4981
757;4982
756;4983
755;4984
753;4985
752;4986
752;4987
750;4988
750;4989
750;4990
750;4991
751;4992
752;4993
754;4994
755;4995
756;4996
756;4997
757;4998
757;4999
757;5000
757;5001
757;5002
757;5003
756;5004
756;5005
754;5006
750;5007
745;5008
739;5009
734;5010
729;5011
725;5012
720;5013
720;5014
721;5015
722;5016
724;5017
727;5018
733;5019
737;5020
740;5021
742;5022
744;5023
746;5024
747;5025
748;5026
748;5027
749;5028
749;5029
750;5030
749;5031
748;5032
746;5033
746;5034
745;5035
745;5036
745;5037
745;5038
746;5039
747;5040
748;5041
749;5042
751;5043
753;5044
754;5045
756;5046
756;5047
757;5048
757;5049
759;5050
760;5051
760;5052
761;5053
761;5054
760;5055
760;5056
761;5057
761;5058
761;5059
761;5060
761;5061
762;5062
762;5063
762;5064
762;5065
761;5066
761;5067
759;5068
759;5069
758;5070
758;5071
758;5072
757;5073
758;5074
758;5075
758;5076
758;5077
759;5078
759;5079
759;5080
759;5081
760;5082
760;5083
760;5084
761;5085
761;5086
761;5087
761;5088
758;5089
755;5090
752;5091
748;5092
739;5093
734;5094
729;5095
725;5096
722;5097
721;5098
721;5099
723;5100
725;5101
728;5102
732;5103
735;5104
743;5105
747;5106
750;5107
752;5108
754;5109
757;5110
758;5111
761;5112
761;5113
762;5114
762;5115
761;5116
759;5117
752;5118
748;5119
743;5120
740;5121
736;5122
734;5123
730;5124
729;5125
729;5126
728;5127
728;5128
728;5129
730;5130
731;5131
733;5132
735;5133
737;5134
740;5135
745;5136
748;5137
750;5138
752;5139
754;5140
756;5141
757;5142
760;5143
762;5144
764;5145
765;5146
765;5147
766;5148
765;5149
765;5150
764;5151
763;5152
762;5153
760;5154
754;5155
751;5156
749;5157
747;5158
745;5159
743;5160
739;5161
738;5162
737;5163
736;5164
734;5165
732;5166
730;5167
730;5168
730;5169
731;5170
733;5171
734;5172
736;5173
740;5174
742;5175
745;5176
748;5177
750;5178
752;5179
754;5180
755;5181
754;5182
753;5183
752;5184
751;5185
749;5186
748;5187
747;5188
747;5189
747;5190
747;5191
746;5192
744;5193
744;5194
742;5195
741;5196
740;5197
740;5198
740;5199
741;5200
742;5201
743;5202
745;5203
746;5204
748;5205
748;5206
749;5207
750;5208
751;5209
752;5210
753;5211
754;5212
755;5213
755;5214
756;5215
757;5216
759;5217
760;5218
761;5219
762;5220
763;5221
764;5222
765;5223
766;5224
766;5225
766;5226
766;5227
764;5228
762;5229
755;5230
751;5231
746;5232
742;5233
737;5234
734;5235
730;5236
727;5237
725;5238
723;5239
722;5240
721;5241
719;5242
720;5243
720;5244
721;5245
723;5246
725;5247
729;5248
731;5249
732;5250
733;5251
733;5252
734;5253
736;5254
739;5255
741;5256
742;5257
744;5258
746;5259
748;5260
753;5261
755;5262
756;5263
757;5264
759;5265
760;5266
761;5267
762;5268
762;5269
763;5270
763;5271
763;5272
765;5273
765;5274
766;5275
766;5276
767;5277
766;5278
765;5279
763;5280
762;5281
761;5282
760;5283
759;5284
758;5285
757;5286
757;5287
757;5288
757;5289
756;5290
756;5291
757;5292
757;5293
757;5294
757;5295
757;5296
756;5297
755;5298
754;5299
753;5300
751;5301
749;5302
747;5303
745;5304
744;5305
744;5306
744;5307
744;5308
744;5309
746;5310
747;5311
747;5312
749;5313
750;5314
750;5315
749;5316
747;5317
744;5318
742;5319
741;5320
738;5321
732;5322
730;5323
729;5324
728;5325
727;5326
727;5327
727;5328
729;5329
730;5330
732;5331
734;5332
737;5333
739;5334
745;5335
748;5336
750;5337
753;5338
755;5339
757;5340
761;5341
761;5342
761;5343
761;5344
761;5345
761;5346
760;5347
760;5348
758;5349
758;5350
757;5351
756;5352
756;5353
753;5354
752;5355
751;5356
749;5357
748;5358
746;5359
744;5360
743;5361
743;5362
743;5363
744;5364
744;5365
745;5366
747;5367
747;5368
748;5369
748;5370
748;5371
748;5372
748;5373
748;5374
748;5375
747;5376
746;5377
743;5378
742;5379
741;5380
741;5381
740;5382
739;5383
738;5384
735;5385
733;5386
731;5387
729;5388
727;5389
725;5390
722;5391
722;5392
721;5393
721;5394
721;5395
722;5396
725;5397
728;5398
730;5399
732;5400
734;5401
736;5402
741;5403
743;5404
746;5405
749;5406
751;5407
754;5408
756;5409
759;5410
761;5411
762;5412
763;5413
763;5414
763;5415
763;5416
762;5417
760;5418
759;5419
757;5420
755;5421
752;5422
750;5423
749;5424
748;5425
747;5426
747;5427
747;5428
748;5429
748;5430
749;5431
749;5432
749;5433
749;5434
750;5435
750;5436
749;5437
748;5438
746;5439
743;5440
731;5441
726;5442
721;5443
718;5444
715;5445
714;5446
715;5447
717;5448
719;5449
721;5450
724;5451
727;5452
732;5453
734;5454
736;5455
737;5456
738;5457
739;5458
742;5459
744;5460
746;5461
747;5462
749;5463
749;5464
751;5465
753;5466
754;5467
755;5468
756;5469
757;5470
759;5471
761;5472
761;5473
762;5474
762;5475
761;5476
761;5477
760;5478
759;5479
757;5480
756;5481
754;5482
753;5483
750;5484
749;5485
749;5486
748;5487
749;5488
749;5489
750;5490
753;5491
754;5492
754;5493
755;5494
755;5495
754;5496
751;5497
750;5498
749;5499
748;5500
748;5501
748;5502
749;5503
749;5504
750;5505
750;5506
750;5507
749;5508
747;5509
746;5510
746;5511
746;5512
746;5513
746;5514
738;5515
731;5516
724;5517
718;5518
714;5519
711;5520
709;5521
711;5522
713;5523
716;5524
719;5525
723;5526
727;5527
735;5528
739;5529
742;5530
744;5531
747;5532
749;5533
754;5534
756;5535
758;5536
759;5537
760;5538
761;5539
762;5540
763;5541
762;5542
762;5543
761;5544
760;5545
758;5546
756;5547
755;5548
752;5549
749;5550
745;5551
742;5552
737;5553
736;5554
736;5555
736;5556
736;5557
737;5558
741;5559
743;5560
745;5561
748;5562
751;5563
754;5564
758;5565
759;5566
761;5567
763;5568
764;5569
766;5570
769;5571
769;5572
771;5573
772;5574
772;5575
773;5576
774;5577
773;5578
772;5579
771;5580
769;5581
767;5582
765;5583
760;5584
756;5585
752;5586
748;5587
745;5588
741;5589
737;5590
735;5591
734;5592
733;5593
732;5594
732;5595
732;5596
732;5597
733;5598
733;5599
733;5600
732;5601
732;5602
732;5603
733;5604
734;5605
734;5606
734;5607
732;5608
730;5609
728;5610
727;5611
726;5612
726;5613
726;5614
727;5615
728;5616
730;5617
731;5618
733;5619
736;5620
741;5621
743;5622
745;5623
747;5624
750;5625
752;5626
756;5627
758;5628
760;5629
762;5630
763;5631
764;5632
765;5633
766;5634
767;5635
768;5636
768;5637
768;5638
769;5639
769;5640
768;5641
768;5642
767;5643
767;5644
767;5645
765;5646
763;5647
761;5648
759;5649
757;5650
755;5651
752;5652
751;5653
749;5654
747;5655
743;5656
738;5657
727;5658
723;5659
718;5660
715;5661
712;5662
710;5663
707;5664
704;5665
704;5666
705;5667
707;5668
709;5669
712;5670
718;5671
722;5672
725;5673
729;5674
732;5675
735;5676
739;5677
740;5678
742;5679
743;5680
745;5681
747;5682
749;5683
752;5684
754;5685
755;5686
757;5687
759;5688
761;5689
762;5690
762;5691
762;5692
762;5693
761;5694
760;5695
758;5696
757;5697
757;5698
756;5699
756;5700
755;5701
755;5702
755;5703
755;5704
755;5705
755;5706
756;5707
757;5708
757;5709
757;5710
758;5711
758;5712
757;5713
757;5714
756;5715
756;5716
755;5717
755;5718
754;5719
754;5720
751;5721
748;5722
744;5723
740;5724
736;5725
732;5726
726;5727
724;5728
722;5729
719;5730
717;5731
714;5732
711;5733
710;5734
711;5735
712;5736
713;5737
716;5738
722;5739
725;5740
729;5741
733;5742
736;5743
739;5744
745;5745
748;5746
750;5747
751;5748
752;5749
753;5750
755;5751
755;5752
756;5753
756;5754
757;5755
757;5756
756;5757
755;5758
753;5759
751;5760
751;5761
750;5762
749;5763
749;5764
750;5765
749;5766
750;5767
750;5768
751;5769
752;5770
753;5771
754;5772
755;5773
756;5774
757;5775
758;5776
759;5777
759;5778
760;5779
760;5780
760;5781
760;5782
760;5783
760;5784
760;5785
760;5786
760;5787
759;5788
759;5789
759;5790
759;5791
758;5792
758;5793
757;5794
756;5795
755;5796
755;5797
755;5798
754;5799
752;5800
748;5801
742;5802
735;5803
728;5804
721;5805
716;5806
709;5807
707;5808
708;5809
708;5810
710;5811
713;5812
719;5813
722;5814
725;5815
727;5816
729;5817
731;5818
734;5819
736;5820
738;5821
739;5822
741;5823
742;5824
743;5825
743;5826
744;5827
745;5828
746;5829
748;5830
749;5831
752;5832
752;5833
753;5834
754;5835
756;5836
756;5837
758;5838
758;5839
757;5840
757;5841
757;5842
757;5843
757;5844
757;5845
757;5846
757;5847
758;5848
758;5849
758;5850
758;5851
758;5852
758;5853
758;5854
757;5855
755;5856
753;5857
751;5858
748;5859
744;5860
738;5861
728;5862
723;5863
720;5864
717;5865
715;5866
714;5867
713;5868
714;5869
715;5870
717;5871
719;5872
721;5873
724;5874
730;5875
733;5876
736;5877
738;5878
741;5879
744;5880
749;5881
751;5882
752;5883
752;5884
751;5885
750;5886
746;5887
744;5888
741;5889
739;5890
737;5891
736;5892
735;5893
734;5894
735;5895
736;5896
737;5897
739;5898
740;5899
743;5900
745;5901
746;5902
748;5903
750;5904
751;5905
752;5906
753;5907
754;5908
755;5909
756;5910
757;5911
758;5912
759;5913
759;5914
760;5915
760;5916
759;5917
760;5918
759;5919
757;5920
756;5921
754;5922
752;5923
750;5924
746;5925
743;5926
741;5927
738;5928
735;5929
731;5930
726;5931
724;5932
723;5933
723;5934
723;5935
725;5936
729;5937
732;5938
735;5939
738;5940
739;5941
740;5942
741;5943
740;5944
740;5945
738;5946
736;5947
734;5948
733;5949
730;5950
729;5951
729;5952
729;5953
731;5954
732;5955
735;5956
737;5957
738;5958
740;5959
741;5960
742;5961
743;5962
743;5963
744;5964
744;5965
744;5966
744;5967
743;5968
743;5969
743;5970
744;5971
745;5972
746;5973
747;5974
749;5975
750;5976
751;5977
751;5978
752;5979
753;5980
755;5981
756;5982
756;5983
755;5984
755;5985
754;5986
754;5987
754;5988
754;5989
755;5990
755;5991
756;5992
756;5993
755;5994
753;5995
751;5996
748;5997
745;5998
744;5999
740;6000
739;6001
738;6002
738;6003
738;6004
738;6005
741;6006
742;6007
742;6008
744;6009
745;6010
746;6011
748;6012
749;6013
750;6014
750;6015
750;6016
750;6017
746;6018
742;6019
738;6020
734;6021
731;6022
728;6023
726;6024
725;6025
725;6026
726;6027
727;6028
728;6029
730;6030
732;6031
734;6032
735;6033
737;6034
738;6035
739;6036
742;6037
743;6038
743;6039
743;6040
743;6041
742;6042
741;6043
739;6044
738;6045
738;6046
737;6047
738;6048
739;6049
741;6050
743;6051
745;6052
747;6053
748;6054
749;6055
752;6056
753;6057
754;6058
756;6059
757;6060
759;6061
760;6062
760;6063
760;6064
760;6065
759;6066
759;6067
757;6068
755;6069
753;6070
750;6071
746;6072
742;6073
735;6074
733;6075
732;6076
732;6077
732;6078
733;6079
736;6080
741;6081
744;6082
748;6083
751;6084
754;6085
757;6086
761;6087
763;6088
765;6089
766;6090
767;6091
768;6092
764;6093
759;6094
755;6095
750;6096
747;6097
744;6098
740;6099
738;6100
738;6101
738;6102
738;6103
738;6104
740;6105
740;6106
740;6107
741;6108
741;6109
741;6110
738;6111
737;6112
734;6113
731;6114
729;6115
727;6116
725;6117
725;6118
725;6119
726;6120
728;6121
729;6122
731;6123
734;6124
736;6125
737;6126
738;6127
739;6128
740;6129
742;6130
743;6131
744;6132
745;6133
746;6134
748;6135
751;6136
753;6137
755;6138
757;6139
758;6140
760;6141
760;6142
759;6143
756;6144
753;6145
750;6146
747;6147
744;6148
738;6149
737;6150
736;6151
735;6152
735;6153
735;6154
736;6155
737;6156
737;6157
738;6158
738;6159
738;6160
740;6161
741;6162
742;6163
743;6164
744;6165
744;6166
746;6167
746;6168
745;6169
745;6170
744;6171
744;6172
744;6173
744;6174
744;6175
744;6176
744;6177
744;6178
745;6179
745;6180
743;6181
740;6182
736;6183
733;6184
730;6185
726;6186
726;6187
726;6188
725;6189
725;6190
726;6191
729;6192
731;6193
733;6194
735;6195
738;6196
740;6197
746;6198
748;6199
749;6200
751;6201
752;6202
754;6203
755;6204
756;6205
756;6206
755;6207
753;6208
752;6209
750;6210
748;6211
745;6212
743;6213
740;6214
738;6215
736;6216
733;6217
731;6218
731;6219
731;6220
731;6221
733;6222
735;6223
736;6224
738;6225
739;6226
740;6227
741;6228
744;6229
746;6230
748;6231
750;6232
752;6233
754;6234
755;6235
758;6236
760;6237
761;6238
763;6239
764;6240
765;6241
762;6242
760;6243
757;6244
755;6245
753;6246
751;6247
747;6248
745;6249
744;6250
743;6251
743;6252
744;6253
745;6254
746;6255
746;6256
747;6257
747;6258
748;6259
748;6260
749;6261
749;6262
750;6263
750;6264
751;6265
751;6266
752;6267
752;6268
752;6269
752;6270
752;6271
750;6272
749;6273
748;6274
747;6275
747;6276
748;6277
749;6278
750;6279
750;6280
751;6281
751;6282
751;6283
750;6284
750;6285
749;6286
746;6287
743;6288
739;6289
736;6290
730;6291
726;6292
722;6293
720;6294
718;6295
717;6296
717;6297
718;6298
720;6299
722;6300
724;6301
727;6302
731;6303
733;6304
735;6305
736;6306
737;6307
738;6308
739;6309
740;6310
741;6311
742;6312
743;6313
744;6314
745;6315
746;6316
747;6317
748;6318
749;6319
750;6320
752;6321
754;6322
755;6323
755;6324
756;6325
757;6326
757;6327
758;6328
758;6329
758;6330
757;6331
757;6332
757;6333
755;6334
754;6335
752;6336
750;6337
747;6338
744;6339
742;6340
738;6341
736;6342
735;6343
734;6344
733;6345
733;6346
732;6347
733;6348
734;6349
736;6350
738;6351
740;6352
742;6353
741;6354
740;6355
737;6356
733;6357
728;6358
721;6359
719;6360
718;6361
718;6362
719;6363
720;6364
725;6365
728;6366
730;6367
733;6368
735;6369
738;6370
742;6371
744;6372
745;6373
747;6374
748;6375
750;6376
753;6377
753;6378
754;6379
754;6380
753;6381
752;6382
752;6383
750;6384
750;6385
749;6386
748;6387
747;6388
747;6389
745;6390
745;6391
745;6392
745;6393
745;6394
745;6395
747;6396
747;6397
748;6398
749;6399
750;6400
751;6401
754;6402
755;6403
757;6404
758;6405
759;6406
760;6407
763;6408
764;6409
764;6410
764;6411
764;6412
763;6413
762;6414
760;6415
758;6416
757;6417
754;6418
750;6419
747;6420
739;6421
735;6422
730;6423
725;6424
720;6425
716;6426
707;6427
704;6428
703;6429
702;6430
702;6431
702;6432
706;6433
708;6434
711;6435
715;6436
718;6437
721;6438
726;6439
729;6440
731;6441
733;6442
736;6443
738;6444
740;6445
744;6446
745;6447
747;6448
748;6449
750;6450
751;6451
754;6452
755;6453
757;6454
758;6455
760;6456
760;6457
760;6458
758;6459
758;6460
757;6461
757;6462
756;6463
756;6464
755;6465
754;6466
753;6467
753;6468
752;6469
751;6470
751;6471
751;6472
751;6473
751;6474
750;6475
751;6476
751;6477
751;6478
751;6479
751;6480
750;6481
749;6482
746;6483
745;6484
744;6485
744;6486
744;6487
743;6488
744;6489
744;6490
745;6491
746;6492
747;6493
749;6494
753;6495
754;6496
753;6497
751;6498
749;6499
745;6500
741;6501
731;6502
726;6503
721;6504
717;6505
714;6506
712;6507
710;6508
711;6509
713;6510
715;6511
717;6512
720;6513
725;6514
728;6515
731;6516
733;6517
736;6518
738;6519
743;6520
745;6521
747;6522
749;6523
751;6524
753;6525
756;6526
757;6527
758;6528
758;6529
758;6530
757;6531
757;6532
755;6533
754;6534
753;6535
752;6536
750;6537
749;6538
747;6539
745;6540
744;6541
743;6542
743;6543
743;6544
743;6545
743;6546
744;6547
745;6548
745;6549
745;6550
746;6551
746;6552
746;6553
746;6554
747;6555
748;6556
749;6557
751;6558
753;6559
754;6560
754;6561
755;6562
755;6563
755;6564
756;6565
756;6566
756;6567
757;6568
757;6569
754;6570
751;6571
749;6572
746;6573
743;6574
738;6575
727;6576
722;6577
719;6578
716;6579
715;6580
714;6581
716;6582
717;6583
718;6584
719;6585
720;6586
721;6587
723;6588
727;6589
729;6590
732;6591
735;6592
738;6593
741;6594
745;6595
746;6596
748;6597
749;6598
750;6599
752;6600
754;6601
755;6602
756;6603
756;6604
756;6605
756;6606
755;6607
755;6608
754;6609
754;6610
753;6611
752;6612
752;6613
750;6614
749;6615
747;6616
746;6617
744;6618
741;6619
737;6620
735;6621
734;6622
733;6623
732;6624
732;6625
733;6626
734;6627
735;6628
736;6629
738;6630
739;6631
741;6632
742;6633
744;6634
744;6635
745;6636
745;6637
746;6638
746;6639
746;6640
745;6641
743;6642
739;6643
728;6644
723;6645
719;6646
716;6647
715;6648
714;6649
716;6650
716;6651
717;6652
717;6653
718;6654
719;6655
720;6656
723;6657
724;6658
725;6659
727;6660
728;6661
731;6662
735;6663
736;6664
738;6665
739;6666
740;6667
740;6668
742;6669
744;6670
745;6671
747;6672
748;6673
749;6674
750;6675
750;6676
750;6677
749;6678
748;6679
748;6680
747;6681
747;6682
747;6683
747;6684
747;6685
747;6686
748;6687
748;6688
748;6689
749;6690
750;6691
751;6692
752;6693
753;6694
754;6695
754;6696
753;6697
753;6698
752;6699
750;6700
749;6701
748;6702
747;6703
746;6704
744;6705
740;6706
739;6707
737;6708
737;6709
737;6710
736;6711
736;6712
736;6713
735;6714
735;6715
736;6716
737;6717
738;6718
741;6719
742;6720
743;6721
745;6722
745;6723
745;6724
743;6725
742;6726
741;6727
739;6728
734;6729
731;6730
722;6731
720;6732
717;6733
717;6734
717;6735
717;6736
720;6737
722;6738
724;6739
726;6740
729;6741
732;6742
734;6743
738;6744
740;6745
742;6746
744;6747
746;6748
747;6749
750;6750
751;6751
751;6752
752;6753
753;6754
752;6755
750;6756
750;6757
750;6758
749;6759
749;6760
748;6761
747;6762
746;6763
746;6764
746;6765
745;6766
746;6767
745;6768
746;6769
746;6770
747;6771
747;6772
748;6773
749;6774
750;6775
749;6776
748;6777
747;6778
745;6779
743;6780
739;6781
738;6782
737;6783
736;6784
736;6785
735;6786
734;6787
734;6788
735;6789
735;6790
734;6791
734;6792
734;6793
735;6794
735;6795
737;6796
738;6797
740;6798
743;6799
743;6800
743;6801
742;6802
742;6803
742;6804
742;6805
743;6806
744;6807
745;6808
746;6809
746;6810
747;6811
747;6812
746;6813
745;6814
744;6815
743;6816
743;6817
743;6818
743;6819
743;6820
744;6821
744;6822
745;6823
747;6824
748;6825
748;6826
749;6827
748;6828
748;6829
746;6830
745;6831
744;6832
743;6833
741;6834
740;6835
737;6836
736;6837
734;6838
733;6839
732;6840
730;6841
729;6842
729;6843
729;6844
730;6845
730;6846
732;6847
733;6848
736;6849
738;6850
740;6851
741;6852
742;6853
743;6854
744;6855
744;6856
744;6857
743;6858
741;6859
738;6860
735;6861
725;6862
721;6863
718;6864
716;6865
715;6866
715;6867
718;6868
719;6869
721;6870
724;6871
726;6872
728;6873
731;6874
732;6875
733;6876
733;6877
734;6878
735;6879
736;6880
736;6881
736;6882
736;6883
736;6884
736;6885
737;6886
737;6887
737;6888
737;6889
737;6890
737;6891
736;6892
737;6893
738;6894
738;6895
739;6896
741;6897
742;6898
744;6899
745;6900
747;6901
748;6902
749;6903
751;6904
754;6905
755;6906
756;6907
757;6908
757;6909
758;6910
759;6911
760;6912
761;6913
760;6914
759;6915
758;6916
753;6917
751;6918
749;6919
747;6920
745;6921
744;6922
743;6923
741;6924
741;6925
739;6926
738;6927
737;6928
736;6929
736;6930
736;6931
737;6932
738;6933
739;6934
740;6935
742;6936
743;6937
744;6938
745;6939
745;6940
744;6941
738;6942
734;6943
731;6944
728;6945
726;6946
725;6947
724;6948
725;6949
726;6950
727;6951
728;6952
729;6953
730;6954
734;6955
737;6956
738;6957
741;6958
742;6959
744;6960
748;6961
750;6962
752;6963
753;6964
755;6965
756;6966
758;6967
759;6968
760;6969
761;6970
762;6971
763;6972
763;6973
763;6974
763;6975
762;6976
761;6977
760;6978
757;6979
754;6980
751;6981
747;6982
743;6983
740;6984
737;6985
731;6986
728;6987
727;6988
726;6989
725;6990
723;6991
721;6992
720;6993
719;6994
720;6995
721;6996
723;6997
727;6998
730;6999
732;7000
734;7001
736;7002
738;7003
741;7004
743;7005
744;7006
745;7007
747;7008
747;7009
748;7010
750;7011
751;7012
752;7013
753;7014
753;7015
753;7016
751;7017
748;7018
745;7019
741;7020
737;7021
734;7022
729;7023
728;7024
727;7025
726;7026
726;7027
727;7028
729;7029
730;7030
730;7031
731;7032
731;7033
731;7034
732;7035
732;7036
733;7037
733;7038
733;7039
733;7040
733;7041
735;7042
737;7043
738;7044
738;7045
738;7046
738;7047
737;7048
737;7049
737;7050
738;7051
738;7052
739;7053
738;7054
737;7055
737;7056
736;7057
736;7058
735;7059
735;7060
734;7061
734;7062
733;7063
733;7064
733;7065
734;7066
735;7067
736;7068
737;7069
737;7070
736;7071
734;7072
732;7073
732;7074
732;7075
732;7076
732;7077
733;7078
735;7079
737;7080
738;7081
740;7082
741;7083
743;7084
746;7085
747;7086
748;7087
748;7088
748;7089
748;7090
747;7091
746;7092
745;7093
745;7094
744;7095
742;7096
741;7097
741;7098
740;7099
740;7100
740;7101
741;7102
741;7103
742;7104
743;7105
744;7106
745;7107
746;7108
745;7109
744;7110
744;7111
743;7112
743;7113
744;7114
745;7115
744;7116
744;7117
744;7118
743;7119
743;7120
743;7121
744;7122
745;7123
745;7124
746;7125
745;7126
744;7127
742;7128
739;7129
737;7130
736;7131
736;7132
735;7133
735;7134
736;7135
736;7136
738;7137
740;7138
742;7139
745;7140
749;7141
750;7142
751;7143
753;7144
754;7145
755;7146
756;7147
756;7148
757;7149
756;7150
756;7151
755;7152
755;7153
755;7154
755;7155
754;7156
751;7157
749;7158
746;7159
744;7160
744;7161
744;7162
744;7163
745;7164
745;7165
747;7166
749;7167
750;7168
750;7169
750;7170
750;7171
750;7172
750;7173
748;7174
747;7175
745;7176
744;7177
741;7178
741;7179
741;7180
741;7181
742;7182
744;7183
746;7184
748;7185
749;7186
750;7187
750;7188
750;7189
750;7190
747;7191
746;7192
744;7193
741;7194
740;7195
738;7196
737;7197
737;7198
737;7199
738;7200
740;7201
742;7202
745;7203
748;7204
750;7205
752;7206
753;7207
754;7208
756;7209
757;7210
757;7211
757;7212
758;7213
758;7214
757;7215
756;7216
756;7217
756;7218
756;7219
756;7220
754;7221
753;7222
752;7223
750;7224
747;7225
744;7226
740;7227
733;7228
729;7229
726;7230
723;7231
721;7232
720;7233
720;7234
719;7235
719;7236
720;7237
721;7238
722;7239
726;7240
727;7241
729;7242
731;7243
734;7244
736;7245
741;7246
742;7247
744;7248
746;7249
747;7250
748;7251
749;7252
750;7253
749;7254
748;7255
745;7256
743;7257
739;7258
734;7259
732;7260
731;7261
730;7262
730;7263
730;7264
731;7265
732;7266
734;7267
736;7268
738;7269
740;7270
743;7271
745;7272
746;7273
748;7274
750;7275
751;7276
753;7277
754;7278
756;7279
756;7280
756;7281
756;7282
756;7283
755;7284
754;7285
752;7286
750;7287
747;7288
744;7289
737;7290
734;7291
732;7292
731;7293
731;7294
732;7295
733;7296
733;7297
733;7298
733;7299
732;7300
731;7301
729;7302
729;7303
728;7304
728;7305
728;7306
728;7307
728;7308
730;7309
731;7310
733;7311
735;7312
737;7313
738;7314
741;7315
743;7316
744;7317
744;7318
743;7319
742;7320
740;7321
739;7322
738;7323
737;7324
736;7325
734;7326
733;7327
733;7328
734;7329
735;7330
736;7331
738;7332
739;7333
742;7334
744;7335
745;7336
747;7337
749;7338
750;7339
754;7340
756;7341
757;7342
759;7343
760;7344
761;7345
762;7346
761;7347
762;7348
761;7349
760;7350
759;7351
755;7352
753;7353
752;7354
750;7355
749;7356
749;7357
748;7358
748;7359
749;7360
748;7361
747;7362
745;7363
742;7364
733;7365
727;7366
720;7367
715;7368
710;7369
707;7370
704;7371
704;7372
705;7373
706;7374
709;7375
712;7376
719;7377
722;7378
726;7379
729;7380
732;7381
734;7382
737;7383
741;7384
744;7385
746;7386
748;7387
750;7388
751;7389
754;7390
755;7391
755;7392
756;7393
756;7394
757;7395
758;7396
759;7397
759;7398
760;7399
760;7400
761;7401
762;7402
762;7403
762;7404
762;7405
762;7406
761;7407
761;7408
760;7409
760;7410
759;7411
759;7412
759;7413
759;7414
759;7415
759;7416
758;7417
759;7418
759;7419
760;7420
760;7421
760;7422
760;7423
761;7424
761;7425
761;7426
761;7427
760;7428
759;7429
755;7430
751;7431
747;7432
736;7433
730;7434
726;7435
721;7436
718;7437
714;7438
712;7439
713;7440
714;7441
715;7442
716;7443
718;7444
722;7445
724;7446
726;7447
727;7448
729;7449
730;7450
731;7451
733;7452
735;7453
736;7454
737;7455
738;7456
740;7457
742;7458
744;7459
745;7460
746;7461
747;7462
748;7463
750;7464
751;7465
752;7466
753;7467
754;7468
754;7469
755;7470
756;7471
755;7472
755;7473
756;7474
755;7475
755;7476
755;7477
755;7478
755;7479
755;7480
754;7481
755;7482
755;7483
756;7484
756;7485
756;7486
756;7487
756;7488
755;7489
755;7490
755;7491
755;7492
754;7493
753;7494
750;7495
748;7496
745;7497
741;7498
737;7499
732;7500
724;7501
721;7502
717;7503
715;7504
712;7505
711;7506
710;7507
710;7508
711;7509
711;7510
711;7511
712;7512
713;7513
716;7514
718;7515
720;7516
723;7517
726;7518
729;7519
734;7520
738;7521
741;7522
744;7523
747;7524
750;7525
755;7526
757;7527
758;7528
759;7529
760;7530
761;7531
762;7532
762;7533
762;7534
762;7535
762;7536
761;7537
760;7538
760;7539
757;7540
754;7541
750;7542
745;7543
740;7544
732;7545
730;7546
728;7547
727;7548
727;7549
727;7550
729;7551
731;7552
734;7553
736;7554
739;7555
742;7556
746;7557
748;7558
750;7559
752;7560
752;7561
752;7562
750;7563
748;7564
748;7565
747;7566
747;7567
748;7568
750;7569
752;7570
753;7571
752;7572
752;7573
752;7574
752;7575
749;7576
747;7577
745;7578
744;7579
742;7580
741;7581
738;7582
737;7583
737;7584
736;7585
736;7586
735;7587
735;7588
736;7589
736;7590
737;7591
738;7592
739;7593
739;7594
737;7595
736;7596
736;7597
735;7598
735;7599
735;7600
737;7601
739;7602
740;7603
742;7604
744;7605
745;7606
749;7607
750;7608
750;7609
750;7610
751;7611
751;7612
752;7613
752;7614
752;7615
753;7616
753;7617
754;7618
755;7619
755;7620
756;7621
756;7622
755;7623
753;7624
751;7625
749;7626
747;7627
747;7628
745;7629
745;7630
744;7631
745;7632
745;7633
745;7634
745;7635
746;7636
747;7637
748;7638
749;7639
751;7640
751;7641
752;7642
753;7643
754;7644
755;7645
754;7646
752;7647
749;7648
746;7649
744;7650
740;7651
739;7652
739;7653
738;7654
737;7655
736;7656
736;7657
736;7658
736;7659
736;7660
736;7661
735;7662
734;7663
734;7664
734;7665
733;7666
733;7667
732;7668
728;7669
726;7670
723;7671
721;7672
719;7673
718;7674
718;7675
720;7676
722;7677
723;7678
726;7679
727;7680
728;7681
730;7682
731;7683
732;7684
733;7685
734;7686
735;7687
738;7688
739;7689
741;7690
742;7691
744;7692
746;7693
749;7694
752;7695
753;7696
755;7697
757;7698
758;7699
760;7700
761;7701
761;7702
760;7703
759;7704
758;7705
757;7706
755;7707
754;7708
752;7709
751;7710
751;7711
750;7712
748;7713
746;7714
743;7715
739;7716
734;7717
730;7718
722;7719
720;7720
719;7721
720;7722
721;7723
722;7724
725;7725
725;7726
727;7727
729;7728
731;7729
732;7730
733;7731
735;7732
735;7733
736;7734
737;7735
737;7736
738;7737
738;7738
738;7739
738;7740
738;7741
739;7742
740;7743
742;7744
743;7745
745;7746
746;7747
748;7748
749;7749
752;7750
753;7751
754;7752
756;7753
757;7754
759;7755
761;7756
762;7757
763;7758
764;7759
764;7760
764;7761
763;7762
761;7763
761;7764
760;7765
759;7766
759;7767
758;7768
757;7769
756;7770
755;7771
754;7772
754;7773
753;7774
751;7775
750;7776
749;7777
749;7778
747;7779
746;7780
742;7781
741;7782
738;7783
734;7784
729;7785
725;7786
721;7787
716;7788
715;7789
716;7790
716;7791
718;7792
720;7793
726;7794
728;7795
731;7796
733;7797
735;7798
737;7799
740;7800
740;7801
741;7802
742;7803
743;7804
743;7805
744;7806
744;7807
745;7808
746;7809
746;7810
747;7811
748;7812
748;7813
749;7814
748;7815
747;7816
745;7817
742;7818
741;7819
740;7820
740;7821
740;7822
741;7823
742;7824
743;7825
744;7826
746;7827
747;7828
749;7829
750;7830
752;7831
751;7832
750;7833
747;7834
742;7835
737;7836
728;7837
725;7838
723;7839
722;7840
723;7841
724;7842
728;7843
730;7844
732;7845
733;7846
734;7847
735;7848
736;7849
736;7850
736;7851
737;7852
738;7853
740;7854
742;7855
746;7856
748;7857
750;7858
752;7859
754;7860
756;7861
760;7862
761;7863
763;7864
765;7865
766;7866
766;7867
765;7868
765;7869
764;7870
762;7871
761;7872
760;7873
759;7874
759;7875
758;7876
757;7877
756;7878
754;7879
750;7880
749;7881
748;7882
747;7883
746;7884
744;7885
743;7886
738;7887
735;7888
731;7889
727;7890
721;7891
716;7892
709;7893
707;7894
706;7895
706;7896
707;7897
709;7898
716;7899
720;7900
725;7901
730;7902
735;7903
740;7904
748;7905
752;7906
755;7907
758;7908
760;7909
760;7910
759;7911
758;7912
756;7913
754;7914
752;7915
750;7916
747;7917
746;7918
746;7919
745;7920
744;7921
745;7922
745;7923
746;7924
747;7925
747;7926
748;7927
748;7928
748;7929
749;7930
750;7931
750;7932
751;7933
752;7934
753;7935
753;7936
754;7937
754;7938
753;7939
752;7940
750;7941
747;7942
745;7943
744;7944
743;7945
743;7946
742;7947
743;7948
744;7949
745;7950
746;7951
747;7952
747;7953
747;7954
747;7955
745;7956
743;7957
740;7958
738;7959
736;7960
734;7961
734;7962
735;7963
736;7964
737;7965
737;7966
738;7967
739;7968
740;7969
741;7970
741;7971
743;7972
746;7973
748;7974
749;7975
748;7976
747;7977
746;7978
744;7979
743;7980
743;7981
743;7982
743;7983
744;7984
744;7985
746;7986
747;7987
748;7988
748;7989
747;7990
746;7991
745;7992
744;7993
744;7994
744;7995
744;7996
745;7997
746;7998
747;7999
748;8000
750;8001
751;8002
752;8003
754;8004
753;8005
751;8006
749;8007
746;8008
744;8009
740;8010
738;8011
737;8012
737;8013
737;8014
737;8015
737;8016
739;8017
740;8018
742;8019
743;8020
744;8021
745;8022
747;8023
747;8024
746;8025
746;8026
746;8027
742;8028
731;8029
726;8030
722;8031
719;8032
716;8033
715;8034
717;8035
719;8036
722;8037
724;8038
726;8039
729;8040
733;8041
734;8042
735;8043
736;8044
737;8045
738;8046
738;8047
739;8048
739;8049
738;8050
738;8051
738;8052
739;8053
740;8054
741;8055
743;8056
744;8057
746;8058
747;8059
750;8060
752;8061
754;8062
755;8063
757;8064
759;8065
762;8066
763;8067
763;8068
763;8069
762;8070
761;8071
758;8072
757;8073
755;8074
754;8075
752;8076
751;8077
749;8078
749;8079
747;8080
746;8081
744;8082
743;8083
741;8084
741;8085
741;8086
741;8087
741;8088
742;8089
742;8090
744;8091
745;8092
746;8093
748;8094
748;8095
747;8096
743;8097
741;8098
739;8099
739;8100
739;8101
741;8102
743;8103
747;8104
749;8105
750;8106
752;8107
753;8108
754;8109
757;8110
758;8111
759;8112
759;8113
760;8114
760;8115
760;8116
760;8117
760;8118
759;8119
760;8120
759;8121
760;8122
761;8123
761;8124
761;8125
762;8126
762;8127
762;8128
763;8129
763;8130
763;8131
764;8132
764;8133
764;8134
763;8135
762;8136
761;8137
760;8138
758;8139
758;8140
757;8141
757;8142
757;8143
757;8144
756;8145
756;8146
756;8147
756;8148
755;8149
754;8150
753;8151
751;8152
746;8153
743;8154
741;8155
739;8156
739;8157
738;8158
738;8159
739;8160
740;8161
741;8162
743;8163
744;8164
747;8165
749;8166
749;8167
750;8168
750;8169
749;8170
749;8171
749;8172
749;8173
749;8174
747;8175
744;8176
741;8177
735;8178
734;8179
732;8180
732;8181
732;8182
732;8183
734;8184
736;8185
738;8186
739;8187
741;8188
742;8189
742;8190
742;8191
743;8192
743;8193
743;8194
744;8195
745;8196
744;8197
743;8198
741;8199
740;8200
739;8201
738;8202
738;8203
739;8204
739;8205
740;8206
741;8207
742;8208
743;8209
742;8210
741;8211
740;8212
739;8213
738;8214
737;8215
737;8216
738;8217
738;8218
739;8219
740;8220
739;8221
736;8222
734;8223
732;8224
730;8225
730;8226
730;8227
731;8228
733;8229
735;8230
737;8231
739;8232
742;8233
748;8234
751;8235
753;8236
755;8237
757;8238
760;8239
763;8240
764;8241
765;8242
765;8243
766;8244
765;8245
763;8246
762;8247
762;8248
761;8249
761;8250
761;8251
760;8252
761;8253
761;8254
760;8255
760;8256
758;8257
754;8258
752;8259
750;8260
748;8261
746;8262
745;8263
744;8264
743;8265
744;8266
744;8267
745;8268
746;8269
747;8270
750;8271
751;8272
753;8273
754;8274
753;8275
753;8276
752;8277
751;8278
751;8279
749;8280
747;8281
746;8282
743;8283
743;8284
743;8285
743;8286
744;8287
744;8288
746;8289
747;8290
748;8291
749;8292
750;8293
751;8294
753;8295
754;8296
752;8297
750;8298
748;8299
746;8300
744;8301
740;8302
737;8303
733;8304
730;8305
728;8306
726;8307
724;8308
724;8309
725;8310
727;8311
728;8312
730;8313
735;8314
737;8315
739;8316
742;8317
745;8318
747;8319
751;8320
753;8321
755;8322
758;8323
759;8324
758;8325
758;8326
757;8327
756;8328
755;8329
755;8330
755;8331
754;8332
753;8333
752;8334
752;8335
752;8336
752;8337
752;8338
751;8339
750;8340
749;8341
748;8342
746;8343
745;8344
744;8345
743;8346
743;8347
744;8348
744;8349
744;8350
745;8351
746;8352
747;8353
748;8354
749;8355
750;8356
752;8357
753;8358
752;8359
753;8360
754;8361
755;8362
755;8363
758;8364
759;8365
761;8366
762;8367
763;8368
764;8369
767;8370
768;8371
769;8372
770;8373
770;8374
771;8375
771;8376
771;8377
770;8378
767;8379
762;8380
757;8381
746;8382
741;8383
736;8384
732;8385
729;8386
727;8387
724;8388
724;8389
724;8390
726;8391
727;8392
729;8393
730;8394
732;8395
734;8396
736;8397
737;8398
739;8399
741;8400
744;8401
745;8402
747;8403
747;8404
748;8405
748;8406
744;8407
740;8408
736;8409
732;8410
728;8411
727;8412
725;8413
724;8414
725;8415
725;8416
727;8417
729;8418
732;8419
737;8420
740;8421
743;8422
746;8423
749;8424
751;8425
756;8426
758;8427
759;8428
760;8429
761;8430
763;8431
764;8432
765;8433
765;8434
765;8435
765;8436
765;8437
764;8438
763;8439
762;8440
761;8441
759;8442
756;8443
749;8444
746;8445
744;8446
742;8447
741;8448
740;8449
741;8450
739;8451
736;8452
733;8453
731;8454
729;8455
728;8456
728;8457
729;8458
731;8459
732;8460
732;8461
732;8462
730;8463
729;8464
729;8465
729;8466
729;8467
729;8468
731;8469
731;8470
733;8471
736;8472
738;8473
740;8474
742;8475
746;8476
747;8477
748;8478
749;8479
750;8480
750;8481
749;8482
749;8483
749;8484
749;8485
748;8486
748;8487
748;8488
747;8489
747;8490
747;8491
747;8492
748;8493
749;8494
750;8495
751;8496
752;8497
752;8498
753;8499
757;8500
758;8501
760;8502
761;8503
763;8504
764;8505
765;8506
766;8507
766;8508
767;8509
768;8510
768;8511
769;8512
770;8513
770;8514
770;8515
768;8516
766;8517
764;8518
757;8519
752;8520
748;8521
744;8522
741;8523
739;8524
736;8525
736;8526
737;8527
738;8528
740;8529
742;8530
746;8531
748;8532
749;8533
751;8534
751;8535
752;8536
753;8537
752;8538
749;8539
745;8540
742;8541
738;8542
735;8543
731;8544
731;8545
731;8546
731;8547
731;8548
732;8549
737;8550
739;8551
742;8552
744;8553
747;8554
749;8555
752;8556
754;8557
755;8558
756;8559
758;8560
759;8561
760;8562
760;8563
760;8564
760;8565
760;8566
760;8567
759;8568
760;8569
761;8570
761;8571
760;8572
760;8573
760;8574
758;8575
757;8576
755;8577
755;8578
754;8579
753;8580
753;8581
753;8582
754;8583
754;8584
753;8585
754;8586
755;8587
755;8588
755;8589
756;8590
757;8591
758;8592
758;8593
755;8594
754;8595
753;8596
752;8597
751;8598
748;8599
743;8600
741;8601
739;8602
736;8603
733;8604
730;8605
726;8606
724;8607
724;8608
724;8609
724;8610
725;8611
727;8612
727;8613
727;8614
726;8615
725;8616
725;8617
725;8618
726;8619
726;8620
727;8621
728;8622
729;8623
732;8624
737;8625
740;8626
743;8627
746;8628
749;8629
752;8630
757;8631
759;8632
761;8633
762;8634
763;8635
763;8636
763;8637
762;8638
761;8639
759;8640
758;8641
756;8642
753;8643
752;8644
751;8645
751;8646
751;8647
750;8648
751;8649
751;8650
752;8651
752;8652
753;8653
754;8654
755;8655
757;8656
759;8657
760;8658
761;8659
762;8660
763;8661
765;8662
765;8663
765;8664
766;8665
766;8666
765;8667
760;8668
755;8669
750;8670
745;8671
739;8672
733;8673
724;8674
720;8675
717;8676
714;8677
713;8678
712;8679
712;8680
714;8681
715;8682
718;8683
720;8684
722;8685
725;8686
731;8687
735;8688
738;8689
740;8690
741;8691
744;8692
748;8693
751;8694
754;8695
756;8696
758;8697
760;8698
763;8699
765;8700
766;8701
767;8702
768;8703
769;8704
769;8705
769;8706
768;8707
768;8708
767;8709
767;8710
765;8711
760;8712
757;8713
754;8714
752;8715
749;8716
746;8717
739;8718
735;8719
733;8720
730;8721
729;8722
728;8723
728;8724
729;8725
730;8726
731;8727
733;8728
735;8729
737;8730
742;8731
744;8732
745;8733
746;8734
747;8735
748;8736
750;8737
751;8738
751;8739
752;8740
753;8741
754;8742
756;8743
758;8744
759;8745
760;8746
761;8747
762;8748
764;8749
764;8750
765;8751
766;8752
767;8753
768;8754
768;8755
765;8756
762;8757
758;8758
754;8759
750;8760
744;8761
743;8762
741;8763
741;8764
741;8765
742;8766
744;8767
747;8768
749;8769
750;8770
751;8771
752;8772
752;8773
749;8774
748;8775
746;8776
744;8777
742;8778
741;8779
738;8780
737;8781
736;8782
736;8783
736;8784
736;8785
737;8786
738;8787
739;8788
741;8789
743;8790
745;8791
746;8792
748;8793
748;8794
748;8795
747;8796
746;8797
746;8798
747;8799
747;8800
747;8801
748;8802
749;8803
750;8804
754;8805
755;8806
756;8807
757;8808
758;8809
759;8810
760;8811
761;8812
760;8813
760;8814
759;8815
759;8816
757;8817
756;8818
755;8819
755;8820
754;8821
753;8822
752;8823
751;8824
749;8825
746;8826
742;8827
740;8828
735;8829
733;8830
732;8831
731;8832
731;8833
732;8834
733;8835
737;8836
740;8837
743;8838
745;8839
747;8840
749;8841
750;8842
749;8843
748;8844
747;8845
746;8846
744;8847
739;8848
738;8849
736;8850
736;8851
736;8852
737;8853
740;8854
742;8855
744;8856
745;8857
746;8858
746;8859
746;8860
745;8861
745;8862
745;8863
746;8864
745;8865
745;8866
744;8867
744;8868
745;8869
745;8870
746;8871
747;8872
750;8873
752;8874
753;8875
755;8876
757;8877
759;8878
763;8879
764;8880
765;8881
767;8882
767;8883
767;8884
766;8885
764;8886
763;8887
761;8888
760;8889
758;8890
756;8891
754;8892
753;8893
751;8894
750;8895
748;8896
745;8897
742;8898
737;8899
733;8900
729;8901
727;8902
725;8903
723;8904
724;8905
725;8906
727;8907
729;8908
732;8909
738;8910
741;8911
745;8912
747;8913
749;8914
750;8915
748;8916
745;8917
743;8918
741;8919
737;8920
735;8921
730;8922
729;8923
729;8924
729;8925
729;8926
730;8927
730;8928
730;8929
731;8930
732;8931
732;8932
733;8933
734;8934
736;8935
738;8936
739;8937
741;8938
743;8939
745;8940
750;8941
753;8942
754;8943
756;8944
759;8945
761;8946
764;8947
766;8948
767;8949
769;8950
770;8951
772;8952
773;8953
775;8954
775;8955
774;8956
773;8957
770;8958
767;8959
761;8960
756;8961
750;8962
745;8963
741;8964
737;8965
732;8966
732;8967
732;8968
732;8969
732;8970
734;8971
738;8972
741;8973
743;8974
745;8975
748;8976
750;8977
754;8978
756;8979
757;8980
758;8981
757;8982
754;8983
747;8984
745;8985
742;8986
740;8987
738;8988
738;8989
739;8990
737;8991
736;8992
735;8993
735;8994
736;8995
737;8996
739;8997
741;8998
742;8999
744;9000
745;9001
747;9002
748;9003
749;9004
750;9005
750;9006
751;9007
751;9008
754;9009
753;9010
753;9011
752;9012
751;9013
749;9014
746;9015
744;9016
743;9017
743;9018
742;9019
742;9020
742;9021
744;9022
746;9023
747;9024
749;9025
751;9026
752;9027
754;9028
755;9029
756;9030
756;9031
757;9032
758;9033
759;9034
760;9035
760;9036
759;9037
757;9038
755;9039
753;9040
752;9041
752;9042
752;9043
752;9044
753;9045
756;9046
757;9047
758;9048
759;9049
760;9050
760;9051
758;9052
754;9053
752;9054
750;9055
749;9056
747;9057
747;9058
746;9059
746;9060
747;9061
748;9062
749;9063
750;9064
752;9065
752;9066
752;9067
752;9068
751;9069
750;9070
748;9071
747;9072
747;9073
746;9074
746;9075
746;9076
748;9077
750;9078
752;9079
754;9080
756;9081
758;9082
759;9083
763;9084
764;9085
765;9086
765;9087
764;9088
764;9089
760;9090
758;9091
754;9092
751;9093
748;9094
745;9095
742;9096
740;9097
739;9098
738;9099
737;9100
737;9101
737;9102
736;9103
736;9104
735;9105
735;9106
735;9107
733;9108
731;9109
730;9110
729;9111
728;9112
726;9113
723;9114
722;9115
720;9116
719;9117
719;9118
719;9119
720;9120
722;9121
724;9122
725;9123
727;9124
730;9125
732;9126
737;9127
739;9128
742;9129
744;9130
747;9131
749;9132
754;9133
756;9134
756;9135
754;9136
751;9137
749;9138
746;9139
744;9140
744;9141
744;9142
744;9143
745;9144
749;9145
751;9146
753;9147
756;9148
758;9149
760;9150
762;9151
765;9152
765;9153
765;9154
764;9155
763;9156
761;9157
756;9158
754;9159
753;9160
752;9161
751;9162
750;9163
747;9164
747;9165
746;9166
746;9167
746;9168
747;9169
747;9170
747;9171
748;9172
749;9173
749;9174
750;9175
751;9176
752;9177
752;9178
753;9179
752;9180
753;9181
753;9182
752;9183
750;9184
747;9185
744;9186
741;9187
738;9188
733;9189
731;9190
730;9191
730;9192
730;9193
730;9194
731;9195
732;9196
733;9197
735;9198
737;9199
739;9200
743;9201
745;9202
747;9203
749;9204
751;9205
753;9206
758;9207
760;9208
762;9209
763;9210
761;9211
759;9212
757;9213
755;9214
754;9215
754;9216
754;9217
753;9218
752;9219
751;9220
751;9221
752;9222
752;9223
753;9224
754;9225
756;9226
756;9227
756;9228
756;9229
756;9230
756;9231
753;9232
752;9233
750;9234
748;9235
746;9236
745;9237
743;9238
742;9239
742;9240
743;9241
744;9242
745;9243
748;9244
750;9245
751;9246
753;9247
755;9248
758;9249
762;9250
764;9251
766;9252
767;9253
768;9254
767;9255
765;9256
757;9257
752;9258
747;9259
743;9260
740;9261
736;9262
732;9263
731;9264
731;9265
731;9266
732;9267
732;9268
736;9269
737;9270
740;9271
742;9272
745;9273
747;9274
752;9275
754;9276
756;9277
758;9278
760;9279
762;9280
763;9281
763;9282
762;9283
762;9284
762;9285
761;9286
761;9287
760;9288
760;9289
760;9290
760;9291
759;9292
756;9293
746;9294
741;9295
737;9296
732;9297
729;9298
726;9299
723;9300
723;9301
723;9302
724;9303
726;9304
728;9305
733;9306
735;9307
738;9308
740;9309
742;9310
743;9311
743;9312
742;9313
742;9314
740;9315
740;9316
739;9317
741;9318
742;9319
744;9320
745;9321
747;9322
749;9323
752;9324
756;9325
758;9326
760;9327
761;9328
763;9329
763;9330
762;9331
759;9332
756;9333
753;9334
750;9335
747;9336
740;9337
737;9338
734;9339
732;9340
729;9341
728;9342
727;9343
728;9344
729;9345
731;9346
733;9347
735;9348
737;9349
741;9350
743;9351
745;9352
747;9353
749;9354
750;9355
752;9356
752;9357
752;9358
750;9359
749;9360
748;9361
746;9362
745;9363
746;9364
746;9365
747;9366
748;9367
749;9368
752;9369
754;9370
756;9371
758;9372
759;9373
760;9374
762;9375
760;9376
756;9377
752;9378
747;9379
743;9380
738;9381
737;9382
736;9383
736;9384
736;9385
736;9386
735;9387
736;9388
736;9389
737;9390
738;9391
739;9392
740;9393
740;9394
741;9395
741;9396
741;9397
741;9398
741;9399
741;9400
742;9401
743;9402
745;9403
747;9404
748;9405
752;9406
754;9407
755;9408
756;9409
755;9410
753;9411
749;9412
747;9413
745;9414
743;9415
741;9416
741;9417
740;9418
741;9419
742;9420
744;9421
746;9422
749;9423
754;9424
757;9425
759;9426
762;9427
764;9428
767;9429
771;9430
773;9431
774;9432
776;9433
777;9434
778;9435
779;9436
779;9437
779;9438
779;9439
779;9440
778;9441
778;9442
776;9443
776;9444
775;9445
774;9446
772;9447
767;9448
755;9449
747;9450
739;9451
731;9452
724;9453
718;9454
710;9455
708;9456
706;9457
706;9458
707;9459
707;9460
709;9461
712;9462
713;9463
714;9464
716;9465
717;9466
719;9467
722;9468
724;9469
726;9470
728;9471
730;9472
732;9473
736;9474
738;9475
739;9476
740;9477
741;9478
742;9479
744;9480
746;9481
748;9482
750;9483
752;9484
754;9485
760;9486
762;9487
765;9488
766;9489
768;9490
769;9491
772;9492
773;9493
774;9494
774;9495
774;9496
774;9497
771;9498
768;9499
765;9500
762;9501
760;9502
757;9503
755;9504
750;9505
749;9506
747;9507
745;9508
744;9509
744;9510
744;9511
743;9512
743;9513
742;9514
742;9515
741;9516
736;9517
734;9518
731;9519
730;9520
729;9521
729;9522
730;9523
730;9524
731;9525
732;9526
734;9527
735;9528
737;9529
741;9530
743;9531
745;9532
747;9533
748;9534
749;9535
748;9536
746;9537
744;9538
742;9539
741;9540
741;9541
740;9542
740;9543
741;9544
742;9545
743;9546
743;9547
745;9548
747;9549
747;9550
747;9551
747;9552
748;9553
745;9554
745;9555
743;9556
741;9557
740;9558
738;9559
736;9560
734;9561
734;9562
734;9563
734;9564
736;9565
737;9566
741;9567
744;9568
746;9569
748;9570
751;9571
753;9572
758;9573
760;9574
762;9575
763;9576
763;9577
763;9578
761;9579
760;9580
759;9581
757;9582
755;9583
754;9584
752;9585
748;9586
746;9587
745;9588
744;9589
744;9590
743;9591
742;9592
741;9593
741;9594
741;9595
742;9596
741;9597
738;9598
736;9599
735;9600
735;9601
735;9602
735;9603
736;9604
739;9605
741;9606
743;9607
745;9608
747;9609
748;9610
746;9611
746;9612
746;9613
747;9614
748;9615
749;9616
753;9617
755;9618
758;9619
760;9620
763;9621
764;9622
764;9623
763;9624
762;9625
761;9626
758;9627
757;9628
755;9629
748;9630
742;9631
737;9632
731;9633
726;9634
722;9635
717;9636
716;9637
716;9638
717;9639
719;9640
722;9641
728;9642
731;9643
735;9644
738;9645
741;9646
743;9647
748;9648
750;9649
751;9650
753;9651
754;9652
755;9653
756;9654
757;9655
757;9656
757;9657
756;9658
754;9659
751;9660
744;9661
741;9662
739;9663
738;9664
738;9665
738;9666
741;9667
742;9668
744;9669
746;9670
748;9671
750;9672
755;9673
757;9674
758;9675
760;9676
762;9677
763;9678
765;9679
765;9680
763;9681
761;9682
756;9683
752;9684
745;9685
743;9686
741;9687
741;9688
741;9689
742;9690
743;9691
745;9692
746;9693
746;9694
746;9695
746;9696
746;9697
747;9698
747;9699
749;9700
750;9701
753;9702
755;9703
759;9704
760;9705
762;9706
762;9707
761;9708
760;9709
758;9710
756;9711
755;9712
753;9713
751;9714
749;9715
745;9716
744;9717
743;9718
742;9719
742;9720
742;9721
740;9722
738;9723
735;9724
734;9725
733;9726
733;9727
733;9728
734;9729
736;9730
737;9731
739;9732
742;9733
745;9734
749;9735
751;9736
753;9737
755;9738
757;9739
759;9740
762;9741
763;9742
763;9743
763;9744
763;9745
763;9746
761;9747
759;9748
754;9749
748;9750
743;9751
739;9752
735;9753
731;9754
730;9755
729;9756
730;9757
731;9758
732;9759
735;9760
737;9761
739;9762
741;9763
742;9764
744;9765
746;9766
748;9767
749;9768
750;9769
751;9770
752;9771
750;9772
749;9773
748;9774
749;9775
749;9776
750;9777
752;9778
754;9779
755;9780
756;9781
757;9782
759;9783
760;9784
762;9785
764;9786
765;9787
767;9788
768;9789
768;9790
766;9791
764;9792
763;9793
762;9794
761;9795
759;9796
756;9797
754;9798
752;9799
750;9800
748;9801
746;9802
744;9803
743;9804
743;9805
743;9806
743;9807
743;9808
743;9809
743;9810
743;9811
744;9812
745;9813
747;9814
748;9815
750;9816
751;9817
753;9818
754;9819
755;9820
756;9821
757;9822
758;9823
759;9824
759;9825
760;9826
761;9827
760;9828
760;9829
761;9830
760;9831
759;9832
755;9833
748;9834
746;9835
744;9836
741;9837
740;9838
738;9839
735;9840
734;9841
733;9842
732;9843
732;9844
731;9845
731;9846
732;9847
733;9848
734;9849
737;9850
739;9851
742;9852
748;9853
751;9854
753;9855
755;9856
758;9857
760;9858
765;9859
767;9860
769;9861
771;9862
771;9863
772;9864
772;9865
772;9866
771;9867
768;9868
765;9869
759;9870
749;9871
745;9872
740;9873
737;9874
734;9875
732;9876
730;9877
730;9878
731;9879
731;9880
732;9881
734;9882
735;9883
738;9884
738;9885
738;9886
738;9887
737;9888
738;9889
738;9890
738;9891
738;9892
738;9893
738;9894
738;9895
739;9896
740;9897
739;9898
738;9899
736;9900
733;9901
725;9902
721;9903
719;9904
717;9905
716;9906
717;9907
720;9908
722;9909
725;9910
729;9911
732;9912
737;9913
745;9914
748;9915
751;9916
753;9917
754;9918
756;9919
760;9920
761;9921
761;9922
762;9923
762;9924
762;9925
763;9926
763;9927
762;9928
763;9929
763;9930
763;9931
763;9932
765;9933
765;9934
765;9935
763;9936
760;9937
757;9938
751;9939
748;9940
746;9941
744;9942
742;9943
740;9944
737;9945
736;9946
734;9947
734;9948
733;9949
733;9950
734;9951
736;9952
737;9953
739;9954
740;9955
742;9956
744;9957
748;9958
751;9959
753;9960
755;9961
758;9962
760;9963
764;9964
766;9965
768;9966
770;9967
771;9968
771;9969
768;9970
765;9971
762;9972
759;9973
756;9974
753;9975
747;9976
744;9977
742;9978
741;9979
739;9980
738;9981
736;9982
736;9983
736;9984
736;9985
736;9986
737;9987
738;9988
741;9989
743;9990
744;9991
745;9992
747;9993
749;9994
752;9995
754;9996
755;9997
757;9998
759;9999
760;10000
763;10001
763;10002
763;10003
763;10004
761;10005
759;10006
755;10007
752;10008
748;10009
743;10010
739;10011
735;10012
727;10013
725;10014
723;10015
723;10016
723;10017
723;10018
724;10019
729;10020
732;10021
735;10022
739;10023
742;10024
746;10025
753;10026
755;10027
758;10028
761;10029
762;10030
764;10031
768;10032
769;10033
771;10034
771;10035
772;10036
772;10037
772;10038
772;10039
772;10040
772;10041
771;10042
771;10043
770;10044
768;10045
764;10046
759;10047
755;10048
751;10049
748;10050
743;10051
742;10052
742;10053
741;10054
741;10055
740;10056
740;10057
740;10058
740;10059
740;10060
740;10061
741;10062
740;10063
739;10064
739;10065
740;10066
740;10067
741;10068
744;10069
744;10070
746;10071
747;10072
748;10073
749;10074
751;10075
754;10076
755;10077
756;10078
757;10079
757;10080
758;10081
758;10082
758;10083
758;10084
758;10085
758;10086
758;10087
753;10088
750;10089
747;10090
744;10091
741;10092
740;10093
737;10094
736;10095
735;10096
735;10097
735;10098
735;10099
736;10100
737;10101
738;10102
739;10103
740;10104
741;10105
742;10106
744;10107
746;10108
748;10109
749;10110
752;10111
753;10112
757;10113
758;10114
761;10115
762;10116
763;10117
764;10118
764;10119
763;10120
763;10121
762;10122
762;10123
762;10124
762;10125
762;10126
763;10127
764;10128
765;10129
766;10130
767;10131
769;10132
770;10133
770;10134
771;10135
771;10136
772;10137
771;10138
769;10139
765;10140
760;10141
754;10142
749;10143
741;10144
738;10145
736;10146
734;10147
732;10148
731;10149
729;10150
726;10151
723;10152
720;10153
717;10154
714;10155
712;10156
711;10157
711;10158
712;10159
714;10160
716;10161
719;10162
724;10163
727;10164
730;10165
733;10166
736;10167
739;10168
744;10169
746;10170
748;10171
751;10172
753;10173
754;10174
756;10175
756;10176
755;10177
755;10178
754;10179
754;10180
753;10181
752;10182
752;10183
753;10184
753;10185
754;10186
756;10187
758;10188
760;10189
762;10190
763;10191
765;10192
767;10193
769;10194
769;10195
769;10196
769;10197
769;10198
769;10199
770;10200
769;10201
768;10202
766;10203
765;10204
763;10205
760;10206
753;10207
747;10208
741;10209
736;10210
733;10211
730;10212
728;10213
728;10214
729;10215
730;10216
731;10217
733;10218
731;10219
730;10220
729;10221
729;10222
728;10223
728;10224
729;10225
729;10226
729;10227
730;10228
729;10229
729;10230
728;10231
726;10232
725;10233
724;10234
724;10235
724;10236
725;10237
727;10238
729;10239
731;10240
733;10241
735;10242
738;10243
742;10244
744;10245
747;10246
750;10247
752;10248
755;10249
760;10250
762;10251
765;10252
767;10253
769;10254
770;10255
773;10256
775;10257
776;10258
777;10259
777;10260
778;10261
778;10262
779;10263
779;10264
779;10265
779;10266
779;10267
780;10268
779;10269
778;10270
777;10271
775;10272
774;10273
770;10274
761;10275
753;10276
744;10277
735;10278
726;10279
719;10280
709;10281
706;10282
705;10283
704;10284
704;10285
705;10286
710;10287
713;10288
716;10289
719;10290
723;10291
727;10292
734;10293
737;10294
740;10295
741;10296
742;10297
742;10298
742;10299
742;10300
742;10301
741;10302
739;10303
738;10304
737;10305
737;10306
738;10307
739;10308
742;10309
744;10310
746;10311
751;10312
753;10313
756;10314
758;10315
760;10316
761;10317
764;10318
765;10319
765;10320
765;10321
765;10322
764;10323
764;10324
761;10325
760;10326
760;10327
759;10328
758;10329
757;10330
754;10331
753;10332
752;10333
750;10334
750;10335
750;10336
750;10337
749;10338
748;10339
747;10340
746;10341
746;10342
744;10343
744;10344
744;10345
745;10346
745;10347
745;10348
748;10349
750;10350
751;10351
754;10352
756;10353
758;10354
759;10355
758;10356
758;10357
758;10358
757;10359
756;10360
756;10361
755;10362
755;10363
753;10364
750;10365
748;10366
746;10367
741;10368
736;10369
731;10370
725;10371
721;10372
718;10373
713;10374
713;10375
714;10376
715;10377
717;10378
720;10379
726;10380
729;10381
732;10382
735;10383
738;10384
741;10385
745;10386
747;10387
750;10388
752;10389
753;10390
755;10391
757;10392
759;10393
760;10394
761;10395
761;10396
762;10397
762;10398
761;10399
759;10400
758;10401
756;10402
753;10403
752;10404
749;10405
748;10406
747;10407
747;10408
747;10409
745;10410
744;10411
744;10412
744;10413
744;10414
745;10415
746;10416
745;10417
741;10418
740;10419
739;10420
738;10421
738;10422
739;10423
743;10424
744;10425
746;10426
749;10427
751;10428
753;10429
757;10430
759;10431
762;10432
763;10433
765;10434
766;10435
767;10436
767;10437
768;10438
768;10439
768;10440
768;10441
768;10442
768;10443
767;10444
767;10445
766;10446
765;10447
757;10448
753;10449
749;10450
746;10451
744;10452
742;10453
740;10454
740;10455
741;10456
742;10457
743;10458
745;10459
747;10460
750;10461
751;10462
752;10463
753;10464
754;10465
755;10466
757;10467
758;10468
759;10469
760;10470
761;10471
761;10472
763;10473
764;10474
765;10475
765;10476
764;10477
762;10478
755;10479
751;10480
745;10481
739;10482
733;10483
728;10484
721;10485
719;10486
718;10487
717;10488
718;10489
719;10490
724;10491
727;10492
730;10493
733;10494
736;10495
739;10496
742;10497
746;10498
747;10499
748;10500
749;10501
749;10502
750;10503
751;10504
752;10505
753;10506
753;10507
754;10508
755;10509
757;10510
757;10511
757;10512
756;10513
755;10514
754;10515
752;10516
752;10517
751;10518
751;10519
751;10520
751;10521
751;10522
751;10523
750;10524
750;10525
749;10526
749;10527
749;10528
750;10529
750;10530
751;10531
752;10532
754;10533
755;10534
757;10535
758;10536
759;10537
761;10538
762;10539
762;10540
757;10541
752;10542
747;10543
742;10544
738;10545
735;10546
730;10547
728;10548
725;10549
721;10550
718;10551
716;10552
714;10553
715;10554
716;10555
716;10556
718;10557
719;10558
720;10559
724;10560
726;10561
728;10562
730;10563
733;10564
735;10565
738;10566
740;10567
741;10568
742;10569
744;10570
745;10571
747;10572
749;10573
750;10574
751;10575
753;10576
755;10577
758;10578
760;10579
761;10580
762;10581
762;10582
762;10583
762;10584
762;10585
761;10586
760;10587
758;10588
756;10589
754;10590
749;10591
746;10592
744;10593
742;10594
738;10595
735;10596
730;10597
729;10598
729;10599
730;10600
732;10601
734;10602
739;10603
743;10604
746;10605
749;10606
752;10607
756;10608
762;10609
765;10610
767;10611
769;10612
771;10613
773;10614
775;10615
776;10616
776;10617
776;10618
774;10619
772;10620
770;10621
766;10622
765;10623
763;10624
762;10625
761;10626
761;10627
761;10628
761;10629
762;10630
762;10631
763;10632
763;10633
764;10634
763;10635
763;10636
762;10637
762;10638
761;10639
760;10640
758;10641
755;10642
753;10643
751;10644
749;10645
747;10646
746;10647
745;10648
746;10649
746;10650
747;10651
747;10652
745;10653
744;10654
742;10655
740;10656
739;10657
738;10658
738;10659
738;10660
738;10661
738;10662
737;10663
736;10664
734;10665
733;10666
733;10667
733;10668
732;10669
732;10670
734;10671
735;10672
737;10673
738;10674
741;10675
743;10676
745;10677
750;10678
753;10679
755;10680
757;10681
759;10682
762;10683
766;10684
767;10685
768;10686
769;10687
769;10688
768;10689
758;10690
753;10691
748;10692
742;10693
735;10694
729;10695
719;10696
715;10697
714;10698
713;10699
714;10700
716;10701
721;10702
724;10703
727;10704
731;10705
734;10706
736;10707
738;10708
740;10709
740;10710
740;10711
740;10712
740;10713
740;10714
740;10715
740;10716
739;10717
739;10718
739;10719
739;10720
739;10721
740;10722
741;10723
742;10724
744;10725
745;10726
748;10727
749;10728
750;10729
752;10730
754;10731
755;10732
756;10733
759;10734
760;10735
761;10736
761;10737
763;10738
763;10739
764;10740
764;10741
764;10742
763;10743
761;10744
760;10745
758;10746
757;10747
757;10748
757;10749
757;10750
757;10751
756;10752
756;10753
754;10754
752;10755
748;10756
745;10757
741;10758
739;10759
739;10760
739;10761
740;10762
741;10763
742;10764
745;10765
747;10766
747;10767
747;10768
746;10769
745;10770
744;10771
743;10772
742;10773
741;10774
739;10775
736;10776
730;10777
728;10778
727;10779
727;10780
728;10781
729;10782
734;10783
737;10784
740;10785
744;10786
746;10787
750;10788
752;10789
754;10790
754;10791
754;10792
754;10793
753;10794
753;10795
752;10796
752;10797
751;10798
750;10799
748;10800
747;10801
747;10802
747;10803
747;10804
748;10805
748;10806
749;10807
751;10808
752;10809
753;10810
754;10811
754;10812
755;10813
758;10814
759;10815
760;10816
761;10817
763;10818
764;10819
765;10820
767;10821
767;10822
767;10823
766;10824
764;10825
763;10826
760;10827
757;10828
754;10829
750;10830
742;10831
730;10832
707;10833
697;10834
690;10835
684;10836
681;10837
680;10838
682;10839
685;10840
689;10841
694;10842
699;10843
705;10844
711;10845
723;10846
729;10847
734;10848
738;10849
743;10850
747;10851
755;10852
758;10853
761;10854
763;10855
765;10856
767;10857
771;10858
773;10859
775;10860
775;10861
775;10862
773;10863
768;10864
765;10865
761;10866
757;10867
753;10868
750;10869
743;10870
741;10871
738;10872
737;10873
735;10874
735;10875
734;10876
734;10877
735;10878
736;10879
738;10880
739;10881
741;10882
745;10883
748;10884
750;10885
753;10886
756;10887
758;10888
763;10889
766;10890
768;10891
770;10892
772;10893
773;10894
777;10895
778;10896
780;10897
781;10898
782;10899
783;10900
783;10901
782;10902
780;10903
779;10904
777;10905
776;10906
773;10907
771;10908
770;10909
768;10910
765;10911
759;10912
745;10913
739;10914
733;10915
728;10916
723;10917
719;10918
716;10919
714;10920
714;10921
714;10922
715;10923
718;10924
720;10925
725;10926
727;10927
730;10928
733;10929
736;10930
739;10931
745;10932
748;10933
751;10934
754;10935
757;10936
760;10937
766;10938
768;10939
770;10940
771;10941
772;10942
774;10943
775;10944
775;10945
776;10946
776;10947
776;10948
776;10949
776;10950
774;10951
773;10952
772;10953
770;10954
769;10955
768;10956
765;10957
765;10958
765;10959
764;10960
765;10961
765;10962
766;10963
767;10964
767;10965
768;10966
768;10967
769;10968
770;10969
771;10970
772;10971
772;10972
773;10973
773;10974
773;10975
772;10976
772;10977
771;10978
769;10979
765;10980
761;10981
752;10982
747;10983
742;10984
738;10985
733;10986
728;10987
718;10988
714;10989
711;10990
709;10991
707;10992
705;10993
698;10994
695;10995
693;10996
691;10997
691;10998
692;10999
696;11000
699;11001
703;11002
707;11003
712;11004
716;11005
726;11006
731;11007
736;11008
742;11009
747;11010
750;11011
757;11012
759;11013
761;11014
763;11015
764;11016
764;11017
765;11018
767;11019
767;11020
768;11021
768;11022
768;11023
769;11024
770;11025
770;11026
770;11027
769;11028
769;11029
770;11030
769;11031
768;11032
766;11033
765;11034
763;11035
761;11036
758;11037
753;11038
749;11039
746;11040
744;11041
741;11042
739;11043
737;11044
737;11045
737;11046
737;11047
738;11048
739;11049
741;11050
742;11051
743;11052
744;11053
744;11054
746;11055
748;11056
749;11057
750;11058
751;11059
751;11060
753;11061
756;11062
758;11063
759;11064
760;11065
761;11066
762;11067
762;11068
760;11069
759;11070
756;11071
754;11072
751;11073
749;11074
746;11075
746;11076
745;11077
745;11078
745;11079
744;11080
738;11081
735;11082
734;11083
734;11084
733;11085
734;11086
736;11087
738;11088
739;11089
740;11090
741;11091
741;11092
742;11093
743;11094
742;11095
742;11096
742;11097
742;11098
742;11099
739;11100
739;11101
737;11102
735;11103
734;11104
733;11105
732;11106
732;11107
733;11108
734;11109
735;11110
736;11111
740;11112
742;11113
745;11114
747;11115
749;11116
752;11117
756;11118
758;11119
759;11120
761;11121
762;11122
763;11123
764;11124
764;11125
765;11126
766;11127
766;11128
765;11129
765;11130
764;11131
763;11132
762;11133
761;11134
760;11135
759;11136
756;11137
754;11138
753;11139
752;11140
750;11141
748;11142
745;11143
744;11144
742;11145
741;11146
740;11147
739;11148
737;11149
736;11150
736;11151
736;11152
737;11153
738;11154
740;11155
741;11156
743;11157
744;11158
746;11159
746;11160
747;11161
745;11162
745;11163
745;11164
745;11165
745;11166
745;11167
746;11168
747;11169
748;11170
748;11171
749;11172
751;11173
753;11174
754;11175
756;11176
757;11177
759;11178
760;11179
761;11180
760;11181
756;11182
751;11183
746;11184
743;11185
738;11186
736;11187
734;11188
734;11189
735;11190
736;11191
737;11192
741;11193
742;11194
745;11195
747;11196
749;11197
750;11198
749;11199
746;11200
741;11201
738;11202
734;11203
731;11204
727;11205
727;11206
727;11207
727;11208
728;11209
730;11210
734;11211
736;11212
737;11213
739;11214
740;11215
742;11216
743;11217
745;11218
746;11219
747;11220
748;11221
748;11222
749;11223
748;11224
746;11225
745;11226
744;11227
744;11228
743;11229
743;11230
744;11231
745;11232
747;11233
749;11234
751;11235
753;11236
756;11237
758;11238
761;11239
762;11240
763;11241
764;11242
765;11243
766;11244
766;11245
767;11246
765;11247
765;11248
763;11249
763;11250
763;11251
763;11252
763;11253
762;11254
762;11255
761;11256
761;11257
760;11258
761;11259
761;11260
762;11261
763;11262
763;11263
764;11264
764;11265
765;11266
765;11267
764;11268
763;11269
761;11270
760;11271
758;11272
757;11273
755;11274
755;11275
755;11276
755;11277
756;11278
756;11279
756;11280
753;11281
749;11282
746;11283
743;11284
741;11285
737;11286
735;11287
734;11288
734;11289
734;11290
734;11291
734;11292
735;11293
735;11294
735;11295
736;11296
737;11297
737;11298
737;11299
738;11300
739;11301
740;11302
742;11303
743;11304
747;11305
749;11306
751;11307
753;11308
755;11309
756;11310
759;11311
760;11312
760;11313
762;11314
762;11315
762;11316
761;11317
759;11318
757;11319
754;11320
752;11321
750;11322
747;11323
745;11324
745;11325
744;11326
744;11327
744;11328
745;11329
746;11330
747;11331
748;11332
749;11333
751;11334
754;11335
755;11336
756;11337
757;11338
757;11339
757;11340
756;11341
753;11342
751;11343
749;11344
747;11345
745;11346
744;11347
741;11348
740;11349
740;11350
740;11351
740;11352
741;11353
743;11354
745;11355
747;11356
749;11357
751;11358
754;11359
757;11360
759;11361
760;11362
760;11363
761;11364
761;11365
762;11366
763;11367
763;11368
764;11369
764;11370
763;11371
761;11372
751;11373
745;11374
741;11375
738;11376
735;11377
734;11378
734;11379
735;11380
736;11381
738;11382
740;11383
742;11384
748;11385
749;11386
751;11387
751;11388
752;11389
752;11390
750;11391
748;11392
745;11393
742;11394
738;11395
735;11396
731;11397
729;11398
727;11399
726;11400
725;11401
724;11402
723;11403
722;11404
722;11405
722;11406
721;11407
722;11408
723;11409
726;11410
728;11411
731;11412
733;11413
736;11414
739;11415
745;11416
748;11417
751;11418
754;11419
756;11420
758;11421
760;11422
761;11423
761;11424
761;11425
761;11426
760;11427
758;11428
758;11429
757;11430
757;11431
757;11432
757;11433
758;11434
760;11435
761;11436
762;11437
764;11438
765;11439
766;11440
768;11441
769;11442
769;11443
769;11444
769;11445
769;11446
768;11447
767;11448
765;11449
759;11450
753;11451
746;11452
728;11453
720;11454
714;11455
710;11456
707;11457
706;11458
706;11459
709;11460
712;11461
716;11462
720;11463
725;11464
729;11465
739;11466
743;11467
747;11468
750;11469
754;11470
757;11471
761;11472
763;11473
765;11474
767;11475
768;11476
769;11477
771;11478
772;11479
773;11480
773;11481
773;11482
771;11483
767;11484
764;11485
762;11486
760;11487
758;11488
755;11489
750;11490
747;11491
745;11492
743;11493
741;11494
739;11495
738;11496
736;11497
735;11498
735;11499
735;11500
736;11501
737;11502
740;11503
742;11504
744;11505
746;11506
748;11507
749;11508
752;11509
754;11510
755;11511
757;11512
758;11513
760;11514
764;11515
765;11516
767;11517
767;11518
767;11519
767;11520
766;11521
764;11522
762;11523
760;11524
758;11525
755;11526
752;11527
746;11528
743;11529
740;11530
739;11531
737;11532
737;11533
737;11534
737;11535
738;11536
739;11537
739;11538
737;11539
730;11540
727;11541
725;11542
724;11543
724;11544
725;11545
729;11546
732;11547
735;11548
738;11549
740;11550
744;11551
750;11552
753;11553
755;11554
757;11555
759;11556
759;11557
758;11558
755;11559
753;11560
752;11561
750;11562
748;11563
747;11564
744;11565
744;11566
744;11567
745;11568
745;11569
745;11570
748;11571
749;11572
750;11573
751;11574
752;11575
753;11576
755;11577
755;11578
757;11579
758;11580
759;11581
759;11582
760;11583
760;11584
760;11585
759;11586
759;11587
759;11588
759;11589
759;11590
759;11591
758;11592
758;11593
757;11594
756;11595
753;11596
751;11597
748;11598
745;11599
743;11600
741;11601
738;11602
736;11603
733;11604
730;11605
728;11606
726;11607
722;11608
722;11609
722;11610
723;11611
724;11612
726;11613
731;11614
733;11615
736;11616
739;11617
741;11618
743;11619
746;11620
749;11621
751;11622
752;11623
754;11624
756;11625
756;11626
758;11627
758;11628
758;11629
759;11630
760;11631
760;11632
763;11633
764;11634
765;11635
766;11636
767;11637
768;11638
765;11639
763;11640
760;11641
758;11642
756;11643
754;11644
748;11645
743;11646
739;11647
737;11648
736;11649
736;11650
737;11651
740;11652
742;11653
745;11654
747;11655
749;11656
752;11657
756;11658
758;11659
758;11660
758;11661
758;11662
758;11663
756;11664
754;11665
753;11666
751;11667
749;11668
746;11669
742;11670
740;11671
739;11672
738;11673
736;11674
735;11675
733;11676
731;11677
730;11678
730;11679
729;11680
729;11681
730;11682
732;11683
734;11684
735;11685
737;11686
738;11687
740;11688
744;11689
745;11690
746;11691
748;11692
750;11693
751;11694
753;11695
754;11696
754;11697
754;11698
753;11699
754;11700
754;11701
755;11702
756;11703
757;11704
758;11705
760;11706
762;11707
763;11708
763;11709
764;11710
765;11711
764;11712
765;11713
765;11714
765;11715
764;11716
763;11717
760;11718
758;11719
751;11720
745;11721
740;11722
736;11723
732;11724
731;11725
729;11726
730;11727
731;11728
733;11729
735;11730
738;11731
743;11732
745;11733
746;11734
747;11735
746;11736
744;11737
740;11738
738;11739
736;11740
734;11741
734;11742
733;11743
733;11744
734;11745
735;11746
737;11747
739;11748
742;11749
745;11750
751;11751
753;11752
755;11753
757;11754
759;11755
760;11756
763;11757
763;11758
764;11759
764;11760
765;11761
765;11762
765;11763
764;11764
763;11765
761;11766
759;11767
756;11768
751;11769
748;11770
746;11771
745;11772
744;11773
743;11774
743;11775
742;11776
742;11777
741;11778
741;11779
741;11780
742;11781
743;11782
744;11783
744;11784
745;11785
746;11786
746;11787
748;11788
749;11789
750;11790
751;11791
752;11792
754;11793
757;11794
759;11795
760;11796
760;11797
761;11798
761;11799
762;11800
761;11801
761;11802
761;11803
760;11804
759;11805
757;11806
755;11807
754;11808
753;11809
752;11810
752;11811
751;11812
749;11813
747;11814
745;11815
743;11816
741;11817
740;11818
739;11819
739;11820
740;11821
740;11822
738;11823
734;11824
728;11825
726;11826
725;11827
723;11828
723;11829
724;11830
726;11831
728;11832
730;11833
731;11834
733;11835
735;11836
737;11837
739;11838
740;11839
741;11840
742;11841
742;11842
743;11843
737;11844
731;11845
725;11846
719;11847
714;11848
709;11849
704;11850
703;11851
703;11852
704;11853
706;11854
709;11855
716;11856
720;11857
724;11858
728;11859
732;11860
735;11861
743;11862
746;11863
749;11864
752;11865
755;11866
758;11867
763;11868
765;11869
767;11870
768;11871
769;11872
770;11873
770;11874
771;11875
771;11876
770;11877
770;11878
769;11879
769;11880
766;11881
765;11882
763;11883
762;11884
760;11885
759;11886
755;11887
753;11888
752;11889
750;11890
748;11891
747;11892
743;11893
742;11894
740;11895
737;11896
735;11897
731;11898
727;11899
725;11900
723;11901
723;11902
722;11903
722;11904
724;11905
725;11906
727;11907
729;11908
731;11909
733;11910
738;11911
740;11912
743;11913
745;11914
747;11915
749;11916
752;11917
756;11918
758;11919
760;11920
762;11921
764;11922
766;11923
769;11924
771;11925
772;11926
773;11927
772;11928
771;11929
767;11930
765;11931
763;11932
762;11933
761;11934
759;11935
756;11936
754;11937
753;11938
751;11939
749;11940
748;11941
747;11942
747;11943
747;11944
748;11945
749;11946
749;11947
747;11948
742;11949
741;11950
739;11951
739;11952
739;11953
739;11954
738;11955
737;11956
735;11957
735;11958
734;11959
734;11960
735;11961
735;11962
735;11963
735;11964
735;11965
735;11966
733;11967
732;11968
731;11969
730;11970
728;11971
727;11972
725;11973
724;11974
724;11975
725;11976
725;11977
727;11978
726;11979
725;11980
725;11981
726;11982
727;11983
728;11984
730;11985
734;11986
736;11987
738;11988
739;11989
739;11990
739;11991
736;11992
734;11993
733;11994
731;11995
729;11996
729;11997
727;11998
726;11999
726;12000
725;12001
725;12002
724;12003
725;12004
726;12005
727;12006
728;12007
731;12008
733;12009
736;12010
743;12011
746;12012
750;12013
753;12014
756;12015
759;12016
764;12017
766;12018
769;12019
770;12020
772;12021
773;12022
775;12023
776;12024
777;12025
779;12026
780;12027
780;12028
781;12029
781;12030
781;12031
781;12032
780;12033
780;12034
779;12035
778;12036
777;12037
775;12038
773;12039
772;12040
769;12041
765;12042
763;12043
761;12044
760;12045
758;12046
756;12047
754;12048
753;12049
752;12050
751;12051
751;12052
751;12053
750;12054
749;12055
745;12056
741;12057
736;12058
733;12059
730;12060
725;12061
723;12062
721;12063
720;12064
720;12065
720;12066
722;12067
724;12068
726;12069
728;12070
730;12071
733;12072
736;12073
739;12074
741;12075
743;12076
745;12077
746;12078
750;12079
751;12080
751;12081
750;12082
750;12083
749;12084
749;12085
748;12086
747;12087
745;12088
742;12089
740;12090
737;12091
733;12092
732;12093
731;12094
730;12095
729;12096
728;12097
727;12098
727;12099
726;12100
723;12101
721;12102
719;12103
716;12104
716;12105
717;12106
719;12107
721;12108
724;12109
728;12110
732;12111
734;12112
736;12113
737;12114
738;12115
738;12116
739;12117
739;12118
740;12119
740;12120
741;12121
742;12122
744;12123
746;12124
748;12125
749;12126
751;12127
752;12128
755;12129
756;12130
757;12131
758;12132
759;12133
760;12134
762;12135
763;12136
764;12137
765;12138
765;12139
766;12140
766;12141
766;12142
766;12143
765;12144
765;12145
764;12146
762;12147
759;12148
757;12149
755;12150
753;12151
751;12152
749;12153
744;12154
742;12155
741;12156
740;12157
740;12158
740;12159
742;12160
741;12161
739;12162
736;12163
735;12164
734;12165
734;12166
735;12167
736;12168
738;12169
740;12170
742;12171
744;12172
747;12173
748;12174
749;12175
749;12176
749;12177
748;12178
745;12179
743;12180
742;12181
741;12182
740;12183
740;12184
739;12185
740;12186
741;12187
741;12188
739;12189
738;12190
737;12191
737;12192
738;12193
739;12194
741;12195
742;12196
746;12197
747;12198
749;12199
750;12200
751;12201
752;12202
753;12203
754;12204
755;12205
755;12206
756;12207
756;12208
756;12209
757;12210
757;12211
756;12212
755;12213
753;12214
751;12215
747;12216
745;12217
745;12218
744;12219
744;12220
745;12221
745;12222
744;12223
744;12224
742;12225
740;12226
739;12227
737;12228
736;12229
736;12230
736;12231
736;12232
736;12233
736;12234
737;12235
739;12236
740;12237
741;12238
742;12239
744;12240
746;12241
748;12242
749;12243
749;12244
750;12245
751;12246
753;12247
754;12248
755;12249
756;12250
758;12251
759;12252
761;12253
762;12254
763;12255
764;12256
764;12257
764;12258
764;12259
763;12260
762;12261
762;12262
760;12263
757;12264
753;12265
740;12266
731;12267
723;12268
715;12269
708;12270
703;12271
693;12272
689;12273
688;12274
689;12275
690;12276
693;12277
700;12278
705;12279
710;12280
715;12281
720;12282
725;12283
730;12284
739;12285
743;12286
747;12287
751;12288
754;12289
757;12290
764;12291
766;12292
769;12293
771;12294
773;12295
775;12296
777;12297
778;12298
779;12299
779;12300
779;12301
778;12302
777;12303
776;12304
775;12305
774;12306
772;12307
770;12308
768;12309
762;12310
759;12311
756;12312
752;12313
750;12314
747;12315
743;12316
742;12317
741;12318
740;12319
740;12320
739;12321
740;12322
740;12323
741;12324
741;12325
743;12326
744;12327
747;12328
748;12329
750;12330
751;12331
753;12332
755;12333
758;12334
758;12335
758;12336
756;12337
754;12338
751;12339
742;12340
738;12341
733;12342
730;12343
728;12344
726;12345
725;12346
725;12347
725;12348
726;12349
727;12350
728;12351
729;12352
732;12353
734;12354
736;12355
737;12356
739;12357
740;12358
744;12359
745;12360
746;12361
747;12362
747;12363
748;12364
748;12365
748;12366
747;12367
745;12368
741;12369
736;12370
727;12371
724;12372
721;12373
718;12374
714;12375
709;12376
703;12377
701;12378
701;12379
701;12380
703;12381
706;12382
709;12383
717;12384
721;12385
726;12386
730;12387
735;12388
739;12389
744;12390
746;12391
749;12392
750;12393
751;12394
753;12395
755;12396
756;12397
757;12398
757;12399
757;12400
757;12401
754;12402
751;12403
749;12404
746;12405
744;12406
742;12407
740;12408
738;12409
738;12410
737;12411
736;12412
734;12413
733;12414
731;12415
731;12416
732;12417
732;12418
733;12419
735;12420
739;12421
741;12422
743;12423
745;12424
747;12425
748;12426
751;12427
753;12428
754;12429
755;12430
756;12431
758;12432
759;12433
760;12434
761;12435
761;12436
762;12437
762;12438
763;12439
763;12440
762;12441
762;12442
761;12443
760;12444
759;12445
758;12446
757;12447
756;12448
754;12449
753;12450
752;12451
751;12452
751;12453
752;12454
752;12455
752;12456
754;12457
754;12458
755;12459
756;12460
756;12461
757;12462
757;12463
759;12464
759;12465
760;12466
760;12467
761;12468
761;12469
761;12470
760;12471
760;12472
758;12473
755;12474
752;12475
744;12476
741;12477
738;12478
735;12479
732;12480
729;12481
718;12482
713;12483
709;12484
706;12485
704;12486
703;12487
704;12488
705;12489
707;12490
709;12491
711;12492
714;12493
719;12494
722;12495
725;12496
729;12497
732;12498
735;12499
739;12500
746;12501
749;12502
752;12503
755;12504
757;12505
760;12506
763;12507
764;12508
765;12509
766;12510
766;12511
767;12512
767;12513
768;12514
768;12515
768;12516
767;12517
765;12518
759;12519
756;12520
753;12521
750;12522
748;12523
745;12524
741;12525
740;12526
738;12527
736;12528
735;12529
734;12530
734;12531
734;12532
733;12533
733;12534
732;12535
731;12536
730;12537
727;12538
727;12539
726;12540
725;12541
725;12542
726;12543
728;12544
730;12545
732;12546
734;12547
736;12548
738;12549
742;12550
744;12551
746;12552
748;12553
749;12554
751;12555
752;12556
754;12557
755;12558
756;12559
757;12560
757;12561
758;12562
758;12563
759;12564
759;12565
759;12566
758;12567
758;12568
758;12569
758;12570
758;12571
758;12572
757;12573
757;12574
755;12575
755;12576
755;12577
754;12578
752;12579
751;12580
745;12581
742;12582
738;12583
734;12584
731;12585
728;12586
721;12587
717;12588
712;12589
706;12590
701;12591
698;12592
696;12593
697;12594
699;12595
701;12596
704;12597
708;12598
712;12599
720;12600
724;12601
729;12602
733;12603
737;12604
740;12605
746;12606
749;12607
751;12608
753;12609
755;12610
757;12611
760;12612
760;12613
761;12614
760;12615
759;12616
758;12617
755;12618
752;12619
749;12620
746;12621
743;12622
740;12623
737;12624
733;12625
732;12626
731;12627
731;12628
731;12629
730;12630
728;12631
727;12632
726;12633
726;12634
726;12635
727;12636
730;12637
732;12638
735;12639
737;12640
740;12641
742;12642
745;12643
749;12644
751;12645
753;12646
754;12647
756;12648
757;12649
759;12650
760;12651
761;12652
762;12653
763;12654
763;12655
763;12656
762;12657
761;12658
760;12659
759;12660
759;12661
757;12662
756;12663
755;12664
751;12665
748;12666
744;12667
737;12668
734;12669
731;12670
728;12671
724;12672
722;12673
720;12674
718;12675
719;12676
721;12677
723;12678
725;12679
727;12680
732;12681
735;12682
736;12683
737;12684
734;12685
732;12686
728;12687
726;12688
726;12689
726;12690
726;12691
726;12692
728;12693
731;12694
734;12695
736;12696
740;12697
743;12698
745;12699
750;12700
751;12701
752;12702
752;12703
751;12704
751;12705
749;12706
749;12707
748;12708
748;12709
748;12710
749;12711
749;12712
749;12713
749;12714
749;12715
749;12716
750;12717
751;12718
751;12719
752;12720
753;12721
754;12722
755;12723
756;12724
756;12725
757;12726
757;12727
757;12728
756;12729
756;12730
756;12731
757;12732
757;12733
757;12734
757;12735
758;12736
759;12737
759;12738
760;12739
761;12740
761;12741
762;12742
762;12743
762;12744
761;12745
760;12746
760;12747
759;12748
756;12749
753;12750
750;12751
747;12752
744;12753
741;12754
734;12755
729;12756
723;12757
718;12758
713;12759
708;12760
704;12761
703;12762
704;12763
706;12764
708;12765
710;12766
714;12767
720;12768
724;12769
728;12770
730;12771
733;12772
735;12773
737;12774
737;12775
736;12776
735;12777
734;12778
733;12779
729;12780
724;12781
719;12782
713;12783
709;12784
706;12785
703;12786
702;12787
703;12788
704;12789
707;12790
711;12791
719;12792
723;12793
728;12794
732;12795
737;12796
741;12797
749;12798
752;12799
755;12800
757;12801
759;12802
761;12803
763;12804
766;12805
767;12806
769;12807
770;12808
770;12809
772;12810
772;12811
772;12812
772;12813
772;12814
771;12815
771;12816
769;12817
769;12818
768;12819
767;12820
767;12821
766;12822
764;12823
756;12824
752;12825
748;12826
745;12827
742;12828
739;12829
734;12830
733;12831
732;12832
732;12833
732;12834
734;12835
736;12836
738;12837
739;12838
738;12839
737;12840
735;12841
727;12842
723;12843
720;12844
717;12845
716;12846
715;12847
717;12848
719;12849
721;12850
724;12851
727;12852
730;12853
737;12854
740;12855
744;12856
747;12857
750;12858
753;12859
758;12860
759;12861
760;12862
760;12863
759;12864
759;12865
759;12866
759;12867
759;12868
759;12869
759;12870
760;12871
760;12872
760;12873
761;12874
762;12875
763;12876
764;12877
765;12878
767;12879
767;12880
766;12881
765;12882
764;12883
759;12884
746;12885
740;12886
734;12887
729;12888
724;12889
720;12890
714;12891
713;12892
712;12893
712;12894
712;12895
713;12896
717;12897
719;12898
721;12899
724;12900
727;12901
729;12902
734;12903
737;12904
739;12905
741;12906
743;12907
745;12908
748;12909
753;12910
755;12911
758;12912
759;12913
761;12914
762;12915
764;12916
764;12917
764;12918
764;12919
764;12920
763;12921
759;12922
757;12923
755;12924
753;12925
752;12926
750;12927
749;12928
745;12929
743;12930
742;12931
741;12932
741;12933
741;12934
741;12935
740;12936
739;12937
738;12938
738;12939
738;12940
741;12941
742;12942
744;12943
746;12944
748;12945
750;12946
753;12947
755;12948
756;12949
757;12950
759;12951
760;12952
762;12953
764;12954
765;12955
767;12956
768;12957
769;12958
772;12959
773;12960
774;12961
774;12962
775;12963
776;12964
775;12965
774;12966
772;12967
770;12968
768;12969
765;12970
764;12971
758;12972
755;12973
750;12974
742;12975
735;12976
727;12977
715;12978
711;12979
706;12980
703;12981
701;12982
700;12983
699;12984
699;12985
701;12986
703;12987
706;12988
709;12989
717;12990
721;12991
725;12992
728;12993
730;12994
732;12995
735;12996
736;12997
737;12998
739;12999
740;13000
742;13001
744;13002
745;13003
746;13004
746;13005
745;13006
745;13007
743;13008
740;13009
737;13010
733;13011
730;13012
727;13013
726;13014
725;13015
726;13016
727;13017
729;13018
731;13019
734;13020
740;13021
744;13022
747;13023
751;13024
754;13025
757;13026
762;13027
764;13028
766;13029
768;13030
769;13031
770;13032
770;13033
769;13034
767;13035
765;13036
763;13037
761;13038
759;13039
755;13040
754;13041
752;13042
751;13043
751;13044
751;13045
752;13046
752;13047
754;13048
755;13049
756;13050
757;13051
759;13052
759;13053
759;13054
759;13055
759;13056
759;13057
756;13058
754;13059
752;13060
750;13061
748;13062
746;13063
745;13064
743;13065
742;13066
742;13067
741;13068
741;13069
741;13070
742;13071
743;13072
744;13073
746;13074
748;13075
749;13076
753;13077
755;13078
757;13079
759;13080
761;13081
761;13082
763;13083
764;13084
765;13085
765;13086
764;13087
763;13088
752;13089
744;13090
737;13091
730;13092
723;13093
718;13094
707;13095
703;13096
700;13097
699;13098
699;13099
700;13100
703;13101
711;13102
716;13103
720;13104
725;13105
729;13106
733;13107
741;13108
744;13109
