emg;t
748;0
748;1
747;2
747;3
747;4
748;5
747;6
747;7
748;8
748;9
748;10
748;11
748;12
748;13
748;14
748;15
748;16
748;17
748;18
748;19
748;20
748;21
748;22
748;23
748;24
748;25
748;26
748;27
748;28
748;29
748;30
748;31
748;32
748;33
748;34
748;35
748;36
748;37
748;38
748;39
747;40
748;41
748;42
748;43
748;44
747;45
748;46
748;47
748;48
748;49
748;50
748;51
748;52
748;53
748;54
748;55
748;56
748;57
748;58
748;59
748;60
748;61
748;62
748;63
748;64
748;65
748;66
748;67
748;68
748;69
748;70
748;71
748;72
748;73
748;74
748;75
748;76
748;77
748;78
748;79
748;80
748;81
748;82
748;83
748;84
748;85
748;86
748;87
748;88
748;89
748;90
748;91
748;92
748;93
748;94
748;95
748;96
748;97
748;98
748;99
748;100
748;101
748;102
748;103
748;104
748;105
748;106
748;107
748;108
748;109
748;110
748;111
748;112
748;113
748;114
748;115
748;116
748;117
748;118
748;119
748;120
748;121
748;122
748;123
748;124
748;125
748;126
748;127
748;128
748;129
748;130
748;131
748;132
748;133
748;134
748;135
748;136
748;137
749;138
748;139
748;140
749;141
748;142
748;143
748;144
749;145
749;146
749;147
749;148
748;149
749;150
748;151
749;152
749;153
748;154
748;155
749;156
748;157
749;158
748;159
748;160
748;161
748;162
749;163
748;164
748;165
749;166
749;167
749;168
748;169
748;170
748;171
748;172
748;173
748;174
748;175
748;176
749;177
748;178
748;179
748;180
748;181
748;182
748;183
748;184
749;185
749;186
749;187
748;188
749;189
749;190
749;191
749;192
749;193
749;194
749;195
749;196
749;197
749;198
749;199
749;200
749;201
749;202
749;203
749;204
749;205
748;206
749;207
749;208
749;209
749;210
749;211
748;212
748;213
749;214
748;215
748;216
749;217
748;218
748;219
748;220
748;221
748;222
748;223
749;224
748;225
748;226
748;227
748;228
748;229
748;230
748;231
748;232
748;233
748;234
748;235
748;236
748;237
748;238
748;239
748;240
748;241
748;242
749;243
749;244
748;245
749;246
748;247
749;248
749;249
749;250
749;251
749;252
749;253
749;254
749;255
749;256
749;257
749;258
749;259
749;260
749;261
749;262
749;263
749;264
749;265
749;266
749;267
749;268
749;269
749;270
749;271
749;272
749;273
749;274
749;275
749;276
749;277
748;278
749;279
749;280
749;281
748;282
749;283
748;284
749;285
749;286
749;287
749;288
749;289
748;290
748;291
749;292
748;293
748;294
749;295
748;296
748;297
749;298
749;299
749;300
749;301
749;302
749;303
749;304
749;305
749;306
749;307
749;308
749;309
749;310
749;311
749;312
749;313
749;314
749;315
749;316
749;317
749;318
749;319
749;320
749;321
749;322
749;323
749;324
749;325
749;326
749;327
749;328
749;329
749;330
749;331
749;332
749;333
749;334
749;335
749;336
749;337
749;338
749;339
749;340
749;341
749;342
749;343
749;344
749;345
749;346
749;347
749;348
749;349
749;350
749;351
749;352
749;353
749;354
749;355
749;356
749;357
749;358
749;359
749;360
749;361
749;362
749;363
749;364
749;365
749;366
749;367
749;368
749;369
749;370
749;371
749;372
749;373
749;374
749;375
749;376
749;377
749;378
749;379
749;380
749;381
749;382
749;383
749;384
749;385
749;386
749;387
749;388
749;389
749;390
749;391
749;392
749;393
749;394
749;395
749;396
749;397
749;398
749;399
749;400
749;401
749;402
749;403
749;404
749;405
749;406
749;407
749;408
749;409
749;410
749;411
749;412
749;413
749;414
749;415
749;416
749;417
749;418
749;419
749;420
749;421
749;422
749;423
749;424
749;425
749;426
749;427
749;428
749;429
749;430
749;431
749;432
749;433
749;434
749;435
749;436
749;437
749;438
749;439
749;440
749;441
749;442
749;443
749;444
749;445
749;446
749;447
749;448
749;449
749;450
749;451
749;452
749;453
749;454
749;455
749;456
749;457
749;458
749;459
749;460
749;461
749;462
749;463
749;464
749;465
749;466
749;467
749;468
749;469
749;470
749;471
749;472
749;473
749;474
749;475
749;476
749;477
749;478
749;479
749;480
749;481
749;482
749;483
749;484
749;485
749;486
749;487
749;488
749;489
749;490
749;491
749;492
749;493
749;494
749;495
749;496
749;497
749;498
749;499
749;500
749;501
749;502
749;503
749;504
749;505
749;506
749;507
749;508
749;509
749;510
749;511
749;512
749;513
749;514
749;515
749;516
749;517
749;518
749;519
749;520
749;521
749;522
749;523
749;524
749;525
749;526
749;527
749;528
749;529
749;530
749;531
749;532
749;533
749;534
749;535
749;536
749;537
749;538
749;539
749;540
749;541
749;542
749;543
749;544
749;545
749;546
749;547
749;548
749;549
749;550
749;551
749;552
749;553
749;554
749;555
749;556
749;557
749;558
749;559
749;560
749;561
748;562
749;563
749;564
749;565
749;566
749;567
749;568
749;569
749;570
749;571
749;572
749;573
749;574
749;575
749;576
749;577
749;578
749;579
749;580
749;581
749;582
749;583
749;584
749;585
749;586
749;587
749;588
749;589
749;590
749;591
749;592
749;593
749;594
749;595
749;596
749;597
749;598
749;599
749;600
749;601
749;602
749;603
749;604
749;605
749;606
749;607
749;608
749;609
749;610
749;611
749;612
749;613
749;614
749;615
749;616
749;617
749;618
749;619
749;620
749;621
749;622
749;623
749;624
749;625
749;626
749;627
749;628
749;629
749;630
749;631
749;632
749;633
749;634
749;635
749;636
749;637
749;638
749;639
749;640
750;641
749;642
749;643
749;644
750;645
749;646
750;647
750;648
749;649
749;650
750;651
750;652
750;653
750;654
750;655
749;656
750;657
750;658
750;659
750;660
750;661
749;662
750;663
750;664
749;665
750;666
750;667
750;668
750;669
750;670
750;671
749;672
749;673
750;674
749;675
749;676
750;677
750;678
750;679
750;680
749;681
750;682
750;683
750;684
750;685
749;686
750;687
750;688
750;689
750;690
750;691
750;692
750;693
750;694
750;695
750;696
750;697
750;698
750;699
750;700
750;701
750;702
750;703
750;704
750;705
750;706
750;707
750;708
750;709
750;710
750;711
750;712
750;713
750;714
750;715
750;716
750;717
750;718
750;719
750;720
750;721
750;722
750;723
749;724
749;725
749;726
750;727
749;728
749;729
749;730
749;731
749;732
749;733
750;734
750;735
749;736
749;737
749;738
749;739
749;740
749;741
749;742
749;743
749;744
749;745
749;746
750;747
749;748
749;749
750;750
750;751
750;752
750;753
750;754
750;755
749;756
750;757
750;758
750;759
750;760
750;761
750;762
750;763
750;764
750;765
750;766
750;767
750;768
750;769
750;770
750;771
750;772
750;773
750;774
750;775
750;776
749;777
750;778
750;779
750;780
750;781
750;782
750;783
750;784
750;785
750;786
750;787
750;788
750;789
750;790
749;791
750;792
750;793
750;794
750;795
750;796
750;797
750;798
750;799
750;800
750;801
750;802
750;803
750;804
750;805
749;806
750;807
750;808
750;809
750;810
750;811
750;812
750;813
750;814
750;815
750;816
750;817
750;818
750;819
750;820
750;821
750;822
750;823
750;824
750;825
750;826
750;827
750;828
750;829
750;830
750;831
750;832
750;833
750;834
750;835
750;836
750;837
750;838
749;839
750;840
750;841
750;842
750;843
750;844
750;845
750;846
750;847
750;848
750;849
750;850
750;851
750;852
750;853
750;854
749;855
750;856
750;857
750;858
749;859
749;860
750;861
750;862
750;863
749;864
750;865
750;866
750;867
750;868
750;869
750;870
750;871
750;872
750;873
750;874
750;875
750;876
750;877
750;878
750;879
750;880
750;881
750;882
750;883
750;884
750;885
750;886
750;887
750;888
750;889
750;890
750;891
750;892
750;893
750;894
750;895
750;896
750;897
750;898
750;899
750;900
750;901
750;902
750;903
750;904
750;905
750;906
750;907
750;908
750;909
750;910
750;911
750;912
750;913
750;914
750;915
750;916
750;917
750;918
750;919
750;920
750;921
750;922
750;923
750;924
750;925
750;926
750;927
750;928
750;929
750;930
750;931
750;932
750;933
750;934
750;935
750;936
750;937
750;938
750;939
750;940
750;941
750;942
750;943
750;944
750;945
750;946
750;947
750;948
750;949
750;950
749;951
750;952
750;953
750;954
750;955
750;956
750;957
750;958
749;959
749;960
749;961
750;962
750;963
749;964
750;965
750;966
750;967
750;968
749;969
749;970
750;971
750;972
750;973
749;974
750;975
750;976
750;977
750;978
750;979
750;980
750;981
750;982
750;983
750;984
750;985
750;986
750;987
750;988
750;989
750;990
750;991
750;992
750;993
750;994
750;995
750;996
750;997
750;998
750;999
750;1000
750;1001
750;1002
750;1003
750;1004
750;1005
750;1006
750;1007
750;1008
750;1009
749;1010
749;1011
749;1012
750;1013
749;1014
750;1015
750;1016
750;1017
749;1018
750;1019
749;1020
749;1021
749;1022
750;1023
750;1024
750;1025
750;1026
750;1027
750;1028
750;1029
750;1030
750;1031
750;1032
750;1033
750;1034
750;1035
750;1036
750;1037
750;1038
750;1039
750;1040
750;1041
750;1042
750;1043
750;1044
750;1045
750;1046
750;1047
750;1048
750;1049
750;1050
750;1051
750;1052
750;1053
750;1054
750;1055
750;1056
750;1057
750;1058
750;1059
750;1060
749;1061
750;1062
750;1063
750;1064
750;1065
750;1066
750;1067
750;1068
750;1069
750;1070
750;1071
750;1072
750;1073
750;1074
750;1075
750;1076
750;1077
750;1078
750;1079
750;1080
750;1081
750;1082
750;1083
750;1084
750;1085
750;1086
750;1087
750;1088
750;1089
750;1090
750;1091
750;1092
750;1093
750;1094
750;1095
750;1096
750;1097
750;1098
750;1099
750;1100
750;1101
750;1102
750;1103
750;1104
750;1105
750;1106
750;1107
750;1108
750;1109
750;1110
750;1111
750;1112
750;1113
750;1114
750;1115
750;1116
750;1117
750;1118
750;1119
750;1120
750;1121
750;1122
750;1123
750;1124
750;1125
750;1126
750;1127
750;1128
750;1129
750;1130
750;1131
750;1132
750;1133
750;1134
750;1135
750;1136
750;1137
750;1138
750;1139
750;1140
750;1141
750;1142
750;1143
750;1144
750;1145
750;1146
750;1147
750;1148
750;1149
750;1150
750;1151
750;1152
750;1153
750;1154
750;1155
750;1156
750;1157
750;1158
750;1159
750;1160
750;1161
750;1162
750;1163
750;1164
750;1165
750;1166
750;1167
750;1168
750;1169
750;1170
750;1171
750;1172
750;1173
750;1174
750;1175
750;1176
750;1177
750;1178
750;1179
750;1180
750;1181
750;1182
750;1183
750;1184
750;1185
750;1186
750;1187
750;1188
750;1189
750;1190
750;1191
750;1192
750;1193
750;1194
750;1195
750;1196
750;1197
750;1198
750;1199
750;1200
750;1201
750;1202
750;1203
750;1204
750;1205
750;1206
750;1207
750;1208
750;1209
750;1210
750;1211
750;1212
750;1213
750;1214
750;1215
750;1216
750;1217
750;1218
750;1219
750;1220
750;1221
750;1222
750;1223
750;1224
750;1225
750;1226
750;1227
750;1228
750;1229
750;1230
750;1231
750;1232
750;1233
750;1234
750;1235
750;1236
750;1237
749;1238
750;1239
750;1240
750;1241
750;1242
749;1243
750;1244
750;1245
750;1246
750;1247
750;1248
750;1249
750;1250
750;1251
750;1252
750;1253
750;1254
750;1255
750;1256
750;1257
750;1258
750;1259
750;1260
750;1261
750;1262
750;1263
750;1264
750;1265
750;1266
750;1267
750;1268
750;1269
750;1270
750;1271
750;1272
750;1273
750;1274
750;1275
750;1276
750;1277
750;1278
750;1279
750;1280
750;1281
750;1282
750;1283
750;1284
750;1285
750;1286
750;1287
750;1288
750;1289
750;1290
750;1291
750;1292
750;1293
750;1294
750;1295
750;1296
750;1297
750;1298
750;1299
750;1300
750;1301
750;1302
749;1303
750;1304
750;1305
750;1306
750;1307
750;1308
750;1309
750;1310
750;1311
749;1312
750;1313
750;1314
750;1315
750;1316
750;1317
750;1318
750;1319
750;1320
750;1321
750;1322
749;1323
750;1324
750;1325
750;1326
750;1327
750;1328
750;1329
750;1330
750;1331
750;1332
750;1333
750;1334
750;1335
750;1336
750;1337
750;1338
750;1339
750;1340
750;1341
750;1342
750;1343
750;1344
750;1345
750;1346
750;1347
750;1348
750;1349
750;1350
750;1351
750;1352
750;1353
750;1354
750;1355
750;1356
750;1357
750;1358
750;1359
750;1360
750;1361
750;1362
750;1363
750;1364
750;1365
750;1366
750;1367
750;1368
750;1369
750;1370
750;1371
750;1372
750;1373
750;1374
750;1375
750;1376
750;1377
750;1378
750;1379
750;1380
750;1381
750;1382
750;1383
750;1384
750;1385
750;1386
750;1387
750;1388
750;1389
750;1390
750;1391
750;1392
750;1393
750;1394
750;1395
750;1396
750;1397
750;1398
750;1399
750;1400
750;1401
750;1402
750;1403
750;1404
750;1405
750;1406
749;1407
750;1408
750;1409
750;1410
750;1411
750;1412
750;1413
750;1414
750;1415
750;1416
749;1417
749;1418
750;1419
750;1420
750;1421
750;1422
750;1423
750;1424
750;1425
750;1426
750;1427
749;1428
750;1429
750;1430
750;1431
750;1432
750;1433
750;1434
750;1435
750;1436
750;1437
750;1438
750;1439
750;1440
750;1441
750;1442
750;1443
750;1444
750;1445
750;1446
750;1447
750;1448
750;1449
750;1450
750;1451
750;1452
750;1453
750;1454
750;1455
750;1456
750;1457
750;1458
749;1459
750;1460
750;1461
749;1462
750;1463
750;1464
750;1465
750;1466
750;1467
750;1468
749;1469
749;1470
750;1471
750;1472
749;1473
750;1474
750;1475
750;1476
750;1477
749;1478
750;1479
750;1480
749;1481
750;1482
750;1483
750;1484
749;1485
750;1486
750;1487
750;1488
750;1489
750;1490
750;1491
750;1492
750;1493
750;1494
750;1495
750;1496
750;1497
750;1498
750;1499
750;1500
750;1501
750;1502
750;1503
750;1504
750;1505
750;1506
750;1507
750;1508
750;1509
750;1510
750;1511
750;1512
750;1513
750;1514
750;1515
750;1516
750;1517
750;1518
750;1519
750;1520
750;1521
749;1522
750;1523
750;1524
750;1525
750;1526
750;1527
750;1528
750;1529
749;1530
750;1531
750;1532
750;1533
750;1534
750;1535
750;1536
749;1537
750;1538
750;1539
750;1540
750;1541
750;1542
750;1543
750;1544
750;1545
750;1546
750;1547
750;1548
750;1549
750;1550
750;1551
750;1552
750;1553
750;1554
750;1555
750;1556
750;1557
750;1558
750;1559
750;1560
750;1561
750;1562
750;1563
750;1564
750;1565
750;1566
750;1567
750;1568
750;1569
750;1570
750;1571
750;1572
750;1573
750;1574
750;1575
750;1576
750;1577
750;1578
750;1579
750;1580
750;1581
750;1582
750;1583
750;1584
750;1585
750;1586
750;1587
749;1588
750;1589
749;1590
750;1591
749;1592
749;1593
749;1594
749;1595
749;1596
749;1597
749;1598
749;1599
749;1600
749;1601
749;1602
749;1603
750;1604
750;1605
749;1606
750;1607
750;1608
750;1609
749;1610
749;1611
749;1612
749;1613
749;1614
750;1615
750;1616
750;1617
749;1618
749;1619
749;1620
750;1621
749;1622
749;1623
749;1624
750;1625
749;1626
749;1627
749;1628
749;1629
749;1630
750;1631
749;1632
749;1633
749;1634
749;1635
749;1636
749;1637
749;1638
749;1639
749;1640
749;1641
749;1642
749;1643
749;1644
749;1645
749;1646
749;1647
749;1648
749;1649
749;1650
749;1651
749;1652
749;1653
749;1654
749;1655
749;1656
750;1657
749;1658
749;1659
750;1660
749;1661
749;1662
750;1663
749;1664
749;1665
750;1666
750;1667
750;1668
750;1669
750;1670
750;1671
750;1672
750;1673
750;1674
750;1675
750;1676
750;1677
750;1678
750;1679
750;1680
750;1681
750;1682
750;1683
750;1684
750;1685
750;1686
750;1687
750;1688
750;1689
750;1690
750;1691
750;1692
750;1693
750;1694
750;1695
750;1696
750;1697
750;1698
750;1699
750;1700
750;1701
750;1702
749;1703
750;1704
749;1705
749;1706
749;1707
749;1708
749;1709
749;1710
749;1711
749;1712
749;1713
749;1714
749;1715
749;1716
749;1717
749;1718
749;1719
750;1720
750;1721
750;1722
750;1723
750;1724
750;1725
750;1726
750;1727
750;1728
750;1729
750;1730
750;1731
750;1732
751;1733
750;1734
750;1735
751;1736
750;1737
750;1738
750;1739
750;1740
750;1741
750;1742
750;1743
750;1744
750;1745
750;1746
750;1747
750;1748
751;1749
750;1750
751;1751
750;1752
750;1753
750;1754
750;1755
750;1756
750;1757
750;1758
750;1759
750;1760
750;1761
750;1762
750;1763
750;1764
750;1765
750;1766
750;1767
750;1768
750;1769
751;1770
750;1771
750;1772
750;1773
750;1774
751;1775
751;1776
751;1777
750;1778
751;1779
750;1780
750;1781
750;1782
750;1783
750;1784
750;1785
750;1786
750;1787
750;1788
750;1789
750;1790
750;1791
750;1792
750;1793
750;1794
750;1795
750;1796
750;1797
750;1798
750;1799
750;1800
749;1801
750;1802
750;1803
749;1804
749;1805
750;1806
749;1807
749;1808
749;1809
749;1810
749;1811
750;1812
750;1813
749;1814
749;1815
749;1816
750;1817
749;1818
750;1819
750;1820
750;1821
750;1822
750;1823
749;1824
750;1825
750;1826
750;1827
750;1828
750;1829
750;1830
750;1831
750;1832
750;1833
750;1834
750;1835
750;1836
750;1837
750;1838
750;1839
750;1840
750;1841
750;1842
750;1843
750;1844
750;1845
750;1846
750;1847
750;1848
750;1849
750;1850
750;1851
750;1852
750;1853
750;1854
750;1855
750;1856
750;1857
750;1858
750;1859
750;1860
750;1861
750;1862
750;1863
750;1864
750;1865
750;1866
750;1867
750;1868
750;1869
750;1870
750;1871
750;1872
750;1873
750;1874
750;1875
750;1876
750;1877
750;1878
750;1879
750;1880
750;1881
750;1882
750;1883
751;1884
751;1885
751;1886
750;1887
750;1888
751;1889
750;1890
750;1891
750;1892
750;1893
750;1894
750;1895
750;1896
750;1897
750;1898
749;1899
750;1900
749;1901
749;1902
750;1903
750;1904
750;1905
750;1906
750;1907
750;1908
750;1909
750;1910
750;1911
750;1912
750;1913
750;1914
750;1915
750;1916
750;1917
750;1918
750;1919
750;1920
750;1921
750;1922
750;1923
750;1924
750;1925
750;1926
750;1927
750;1928
751;1929
751;1930
751;1931
751;1932
751;1933
751;1934
751;1935
751;1936
751;1937
751;1938
751;1939
751;1940
751;1941
751;1942
752;1943
751;1944
751;1945
751;1946
752;1947
751;1948
751;1949
751;1950
751;1951
751;1952
751;1953
750;1954
750;1955
751;1956
751;1957
750;1958
750;1959
750;1960
749;1961
749;1962
749;1963
749;1964
748;1965
748;1966
748;1967
748;1968
748;1969
748;1970
748;1971
748;1972
748;1973
748;1974
748;1975
748;1976
747;1977
748;1978
748;1979
747;1980
748;1981
747;1982
748;1983
748;1984
748;1985
748;1986
748;1987
748;1988
748;1989
748;1990
748;1991
748;1992
748;1993
748;1994
748;1995
749;1996
749;1997
749;1998
749;1999
749;2000
749;2001
749;2002
749;2003
749;2004
749;2005
749;2006
749;2007
749;2008
749;2009
749;2010
750;2011
749;2012
750;2013
749;2014
750;2015
750;2016
750;2017
750;2018
750;2019
750;2020
751;2021
751;2022
751;2023
751;2024
751;2025
751;2026
751;2027
751;2028
751;2029
751;2030
751;2031
751;2032
751;2033
751;2034
751;2035
751;2036
751;2037
751;2038
751;2039
750;2040
750;2041
750;2042
749;2043
750;2044
750;2045
749;2046
750;2047
749;2048
749;2049
749;2050
749;2051
749;2052
749;2053
749;2054
749;2055
749;2056
749;2057
749;2058
749;2059
749;2060
749;2061
749;2062
749;2063
749;2064
749;2065
749;2066
749;2067
749;2068
749;2069
749;2070
749;2071
748;2072
748;2073
748;2074
748;2075
747;2076
747;2077
746;2078
746;2079
745;2080
745;2081
744;2082
744;2083
744;2084
744;2085
744;2086
744;2087
744;2088
744;2089
744;2090
744;2091
744;2092
744;2093
744;2094
744;2095
744;2096
744;2097
744;2098
744;2099
744;2100
744;2101
744;2102
744;2103
744;2104
744;2105
744;2106
744;2107
744;2108
745;2109
745;2110
745;2111
745;2112
745;2113
745;2114
745;2115
745;2116
745;2117
745;2118
745;2119
746;2120
745;2121
746;2122
745;2123
745;2124
745;2125
746;2126
746;2127
746;2128
746;2129
745;2130
746;2131
745;2132
745;2133
745;2134
745;2135
745;2136
744;2137
744;2138
744;2139
744;2140
744;2141
744;2142
744;2143
745;2144
745;2145
745;2146
744;2147
745;2148
745;2149
745;2150
745;2151
745;2152
745;2153
745;2154
745;2155
745;2156
745;2157
746;2158
746;2159
746;2160
746;2161
746;2162
746;2163
747;2164
747;2165
747;2166
747;2167
747;2168
748;2169
748;2170
748;2171
748;2172
748;2173
748;2174
748;2175
748;2176
748;2177
748;2178
748;2179
748;2180
748;2181
748;2182
748;2183
748;2184
748;2185
748;2186
748;2187
748;2188
748;2189
747;2190
747;2191
747;2192
748;2193
747;2194
748;2195
748;2196
747;2197
748;2198
747;2199
747;2200
747;2201
747;2202
747;2203
747;2204
747;2205
747;2206
747;2207
747;2208
747;2209
747;2210
747;2211
747;2212
747;2213
747;2214
747;2215
747;2216
747;2217
747;2218
747;2219
747;2220
747;2221
747;2222
747;2223
747;2224
747;2225
747;2226
747;2227
747;2228
747;2229
747;2230
747;2231
746;2232
746;2233
747;2234
747;2235
747;2236
747;2237
747;2238
747;2239
746;2240
747;2241
747;2242
747;2243
747;2244
747;2245
747;2246
747;2247
747;2248
746;2249
745;2250
745;2251
745;2252
745;2253
744;2254
744;2255
744;2256
744;2257
744;2258
744;2259
745;2260
745;2261
745;2262
746;2263
746;2264
747;2265
747;2266
747;2267
748;2268
748;2269
748;2270
748;2271
748;2272
747;2273
747;2274
746;2275
746;2276
745;2277
745;2278
744;2279
744;2280
744;2281
742;2282
742;2283
742;2284
741;2285
741;2286
741;2287
741;2288
741;2289
741;2290
741;2291
742;2292
742;2293
743;2294
743;2295
743;2296
744;2297
744;2298
744;2299
745;2300
744;2301
744;2302
743;2303
743;2304
743;2305
742;2306
742;2307
742;2308
742;2309
742;2310
742;2311
742;2312
742;2313
742;2314
742;2315
742;2316
742;2317
742;2318
741;2319
741;2320
740;2321
740;2322
738;2323
738;2324
736;2325
736;2326
734;2327
733;2328
730;2329
729;2330
727;2331
726;2332
725;2333
725;2334
726;2335
726;2336
726;2337
728;2338
728;2339
729;2340
730;2341
731;2342
733;2343
735;2344
736;2345
737;2346
738;2347
739;2348
740;2349
742;2350
743;2351
744;2352
745;2353
746;2354
747;2355
748;2356
749;2357
749;2358
750;2359
750;2360
750;2361
751;2362
751;2363
751;2364
751;2365
751;2366
751;2367
752;2368
752;2369
752;2370
752;2371
753;2372
753;2373
753;2374
753;2375
752;2376
752;2377
752;2378
752;2379
751;2380
751;2381
751;2382
751;2383
751;2384
751;2385
751;2386
751;2387
751;2388
750;2389
749;2390
748;2391
746;2392
745;2393
743;2394
742;2395
741;2396
741;2397
740;2398
740;2399
740;2400
740;2401
740;2402
740;2403
740;2404
740;2405
739;2406
738;2407
738;2408
737;2409
737;2410
737;2411
737;2412
737;2413
739;2414
739;2415
739;2416
740;2417
741;2418
741;2419
742;2420
742;2421
741;2422
741;2423
740;2424
738;2425
738;2426
737;2427
736;2428
736;2429
736;2430
736;2431
736;2432
736;2433
737;2434
737;2435
738;2436
738;2437
739;2438
739;2439
740;2440
741;2441
741;2442
742;2443
742;2444
742;2445
741;2446
741;2447
741;2448
741;2449
739;2450
739;2451
738;2452
738;2453
738;2454
738;2455
738;2456
737;2457
738;2458
738;2459
739;2460
739;2461
741;2462
741;2463
742;2464
742;2465
743;2466
744;2467
745;2468
746;2469
747;2470
748;2471
749;2472
750;2473
751;2474
752;2475
752;2476
752;2477
753;2478
754;2479
754;2480
755;2481
756;2482
756;2483
756;2484
757;2485
757;2486
758;2487
758;2488
759;2489
759;2490
759;2491
759;2492
759;2493
759;2494
760;2495
760;2496
760;2497
761;2498
761;2499
762;2500
762;2501
763;2502
763;2503
763;2504
764;2505
765;2506
765;2507
765;2508
766;2509
766;2510
766;2511
767;2512
768;2513
768;2514
768;2515
768;2516
767;2517
766;2518
765;2519
765;2520
764;2521
763;2522
763;2523
763;2524
763;2525
763;2526
764;2527
764;2528
764;2529
765;2530
766;2531
766;2532
767;2533
768;2534
768;2535
769;2536
770;2537
770;2538
770;2539
770;2540
770;2541
770;2542
769;2543
768;2544
767;2545
766;2546
764;2547
763;2548
761;2549
760;2550
759;2551
759;2552
758;2553
758;2554
758;2555
758;2556
758;2557
758;2558
757;2559
756;2560
755;2561
753;2562
752;2563
751;2564
750;2565
750;2566
750;2567
751;2568
751;2569
751;2570
752;2571
752;2572
753;2573
753;2574
753;2575
753;2576
752;2577
752;2578
751;2579
750;2580
749;2581
749;2582
749;2583
749;2584
749;2585
751;2586
752;2587
754;2588
755;2589
756;2590
756;2591
758;2592
759;2593
760;2594
760;2595
761;2596
761;2597
762;2598
763;2599
763;2600
763;2601
763;2602
763;2603
763;2604
763;2605
764;2606
764;2607
765;2608
766;2609
766;2610
767;2611
767;2612
768;2613
768;2614
768;2615
768;2616
768;2617
767;2618
767;2619
767;2620
767;2621
768;2622
768;2623
768;2624
768;2625
768;2626
767;2627
766;2628
763;2629
762;2630
760;2631
759;2632
758;2633
757;2634
756;2635
755;2636
754;2637
754;2638
754;2639
753;2640
753;2641
752;2642
752;2643
752;2644
753;2645
754;2646
754;2647
756;2648
757;2649
757;2650
755;2651
754;2652
753;2653
750;2654
749;2655
747;2656
746;2657
745;2658
744;2659
743;2660
743;2661
743;2662
744;2663
745;2664
746;2665
747;2666
750;2667
751;2668
752;2669
753;2670
753;2671
754;2672
755;2673
756;2674
757;2675
757;2676
758;2677
759;2678
759;2679
760;2680
761;2681
761;2682
762;2683
762;2684
763;2685
763;2686
763;2687
762;2688
762;2689
761;2690
761;2691
759;2692
757;2693
755;2694
754;2695
752;2696
751;2697
748;2698
746;2699
746;2700
745;2701
745;2702
745;2703
746;2704
747;2705
748;2706
748;2707
749;2708
750;2709
751;2710
752;2711
753;2712
753;2713
754;2714
755;2715
756;2716
757;2717
757;2718
758;2719
758;2720
759;2721
761;2722
761;2723
762;2724
762;2725
762;2726
763;2727
764;2728
764;2729
765;2730
765;2731
765;2732
765;2733
765;2734
765;2735
765;2736
765;2737
765;2738
765;2739
765;2740
763;2741
762;2742
760;2743
759;2744
758;2745
757;2746
754;2747
753;2748
753;2749
752;2750
751;2751
750;2752
750;2753
750;2754
750;2755
750;2756
751;2757
751;2758
752;2759
752;2760
752;2761
753;2762
752;2763
753;2764
752;2765
753;2766
753;2767
754;2768
754;2769
755;2770
755;2771
756;2772
757;2773
757;2774
758;2775
758;2776
759;2777
759;2778
759;2779
759;2780
759;2781
759;2782
759;2783
760;2784
761;2785
761;2786
761;2787
762;2788
762;2789
763;2790
763;2791
763;2792
764;2793
765;2794
766;2795
766;2796
768;2797
769;2798
769;2799
769;2800
770;2801
770;2802
770;2803
770;2804
770;2805
770;2806
769;2807
769;2808
765;2809
762;2810
759;2811
757;2812
753;2813
751;2814
747;2815
745;2816
744;2817
744;2818
743;2819
742;2820
742;2821
742;2822
742;2823
743;2824
743;2825
743;2826
744;2827
745;2828
746;2829
747;2830
748;2831
751;2832
752;2833
755;2834
757;2835
759;2836
760;2837
761;2838
761;2839
763;2840
764;2841
764;2842
765;2843
765;2844
765;2845
766;2846
767;2847
767;2848
767;2849
767;2850
767;2851
767;2852
767;2853
767;2854
766;2855
766;2856
765;2857
764;2858
762;2859
762;2860
761;2861
761;2862
761;2863
761;2864
760;2865
759;2866
758;2867
756;2868
754;2869
752;2870
749;2871
748;2872
746;2873
744;2874
744;2875
743;2876
743;2877
745;2878
746;2879
747;2880
749;2881
750;2882
751;2883
753;2884
753;2885
755;2886
755;2887
756;2888
757;2889
757;2890
758;2891
758;2892
758;2893
758;2894
759;2895
760;2896
760;2897
760;2898
761;2899
762;2900
763;2901
765;2902
766;2903
767;2904
767;2905
767;2906
768;2907
768;2908
768;2909
768;2910
767;2911
766;2912
765;2913
765;2914
764;2915
764;2916
764;2917
763;2918
763;2919
762;2920
762;2921
761;2922
760;2923
760;2924
759;2925
760;2926
759;2927
758;2928
758;2929
758;2930
757;2931
757;2932
756;2933
756;2934
756;2935
755;2936
754;2937
754;2938
753;2939
753;2940
752;2941
751;2942
749;2943
747;2944
745;2945
740;2946
738;2947
736;2948
736;2949
735;2950
735;2951
737;2952
738;2953
741;2954
742;2955
745;2956
746;2957
745;2958
744;2959
743;2960
742;2961
740;2962
739;2963
738;2964
737;2965
737;2966
738;2967
739;2968
741;2969
742;2970
746;2971
748;2972
750;2973
751;2974
753;2975
754;2976
757;2977
758;2978
759;2979
760;2980
760;2981
760;2982
760;2983
760;2984
761;2985
761;2986
762;2987
762;2988
763;2989
764;2990
765;2991
765;2992
765;2993
764;2994
764;2995
762;2996
762;2997
760;2998
759;2999
758;3000
756;3001
755;3002
755;3003
755;3004
756;3005
757;3006
758;3007
759;3008
759;3009
760;3010
760;3011
760;3012
760;3013
758;3014
757;3015
756;3016
754;3017
752;3018
751;3019
749;3020
748;3021
748;3022
748;3023
749;3024
749;3025
751;3026
752;3027
752;3028
753;3029
752;3030
752;3031
752;3032
753;3033
754;3034
755;3035
756;3036
757;3037
757;3038
760;3039
761;3040
761;3041
762;3042
762;3043
762;3044
762;3045
763;3046
763;3047
764;3048
765;3049
765;3050
767;3051
769;3052
770;3053
771;3054
772;3055
773;3056
775;3057
775;3058
776;3059
776;3060
776;3061
776;3062
776;3063
777;3064
777;3065
777;3066
777;3067
777;3068
777;3069
777;3070
778;3071
778;3072
778;3073
777;3074
776;3075
773;3076
772;3077
772;3078
771;3079
770;3080
770;3081
770;3082
770;3083
770;3084
771;3085
771;3086
772;3087
773;3088
774;3089
774;3090
775;3091
775;3092
776;3093
776;3094
777;3095
777;3096
777;3097
778;3098
778;3099
777;3100
776;3101
775;3102
774;3103
774;3104
773;3105
773;3106
773;3107
772;3108
772;3109
772;3110
771;3111
770;3112
769;3113
769;3114
769;3115
768;3116
768;3117
766;3118
764;3119
762;3120
761;3121
761;3122
759;3123
759;3124
760;3125
761;3126
761;3127
762;3128
763;3129
763;3130
764;3131
764;3132
764;3133
764;3134
764;3135
764;3136
765;3137
765;3138
765;3139
765;3140
765;3141
764;3142
759;3143
756;3144
753;3145
751;3146
749;3147
747;3148
746;3149
746;3150
747;3151
748;3152
750;3153
752;3154
754;3155
758;3156
760;3157
762;3158
764;3159
766;3160
767;3161
770;3162
771;3163
771;3164
772;3165
772;3166
772;3167
772;3168
772;3169
771;3170
772;3171
772;3172
772;3173
773;3174
774;3175
774;3176
774;3177
774;3178
774;3179
773;3180
771;3181
770;3182
769;3183
768;3184
767;3185
766;3186
765;3187
765;3188
764;3189
763;3190
763;3191
763;3192
763;3193
763;3194
764;3195
764;3196
764;3197
764;3198
763;3199
762;3200
761;3201
759;3202
758;3203
757;3204
756;3205
756;3206
756;3207
757;3208
758;3209
759;3210
761;3211
764;3212
766;3213
767;3214
767;3215
768;3216
769;3217
770;3218
771;3219
772;3220
772;3221
772;3222
772;3223
773;3224
773;3225
774;3226
774;3227
774;3228
774;3229
773;3230
771;3231
770;3232
767;3233
766;3234
764;3235
761;3236
761;3237
760;3238
761;3239
762;3240
763;3241
766;3242
768;3243
769;3244
770;3245
772;3246
773;3247
775;3248
776;3249
777;3250
778;3251
778;3252
778;3253
778;3254
778;3255
778;3256
777;3257
777;3258
777;3259
776;3260
775;3261
775;3262
775;3263
775;3264
775;3265
774;3266
774;3267
773;3268
773;3269
773;3270
772;3271
772;3272
772;3273
771;3274
770;3275
770;3276
768;3277
768;3278
767;3279
767;3280
767;3281
767;3282
767;3283
767;3284
768;3285
770;3286
772;3287
773;3288
773;3289
774;3290
775;3291
775;3292
775;3293
774;3294
775;3295
774;3296
774;3297
773;3298
771;3299
769;3300
766;3301
763;3302
760;3303
753;3304
750;3305
748;3306
746;3307
745;3308
746;3309
747;3310
750;3311
753;3312
755;3313
757;3314
760;3315
762;3316
765;3317
765;3318
766;3319
767;3320
767;3321
767;3322
765;3323
763;3324
761;3325
759;3326
757;3327
755;3328
749;3329
747;3330
745;3331
744;3332
742;3333
741;3334
740;3335
740;3336
740;3337
741;3338
743;3339
744;3340
747;3341
748;3342
749;3343
750;3344
752;3345
753;3346
754;3347
757;3348
758;3349
759;3350
760;3351
761;3352
762;3353
764;3354
765;3355
766;3356
766;3357
765;3358
763;3359
760;3360
759;3361
759;3362
758;3363
758;3364
758;3365
758;3366
760;3367
760;3368
761;3369
762;3370
763;3371
764;3372
768;3373
769;3374
771;3375
772;3376
773;3377
775;3378
776;3379
777;3380
778;3381
778;3382
778;3383
778;3384
779;3385
779;3386
779;3387
778;3388
778;3389
777;3390
775;3391
774;3392
773;3393
772;3394
771;3395
769;3396
767;3397
767;3398
767;3399
766;3400
766;3401
765;3402
764;3403
763;3404
763;3405
763;3406
762;3407
762;3408
762;3409
760;3410
759;3411
758;3412
756;3413
755;3414
754;3415
752;3416
751;3417
751;3418
751;3419
750;3420
750;3421
750;3422
750;3423
750;3424
749;3425
749;3426
749;3427
750;3428
751;3429
752;3430
754;3431
754;3432
756;3433
758;3434
758;3435
758;3436
759;3437
758;3438
759;3439
759;3440
758;3441
758;3442
757;3443
757;3444
756;3445
755;3446
755;3447
755;3448
755;3449
755;3450
755;3451
755;3452
754;3453
752;3454
751;3455
750;3456
749;3457
749;3458
750;3459
750;3460
752;3461
752;3462
754;3463
755;3464
757;3465
757;3466
758;3467
758;3468
758;3469
758;3470
757;3471
753;3472
749;3473
746;3474
742;3475
739;3476
736;3477
731;3478
729;3479
729;3480
729;3481
730;3482
731;3483
735;3484
736;3485
739;3486
741;3487
743;3488
745;3489
748;3490
750;3491
752;3492
754;3493
755;3494
757;3495
758;3496
758;3497
757;3498
756;3499
756;3500
756;3501
756;3502
756;3503
756;3504
755;3505
754;3506
753;3507
753;3508
752;3509
752;3510
752;3511
752;3512
751;3513
751;3514
751;3515
751;3516
752;3517
752;3518
752;3519
752;3520
752;3521
751;3522
751;3523
750;3524
750;3525
749;3526
747;3527
747;3528
746;3529
745;3530
745;3531
744;3532
744;3533
745;3534
746;3535
747;3536
748;3537
749;3538
751;3539
753;3540
754;3541
755;3542
756;3543
757;3544
759;3545
760;3546
762;3547
762;3548
762;3549
761;3550
759;3551
755;3552
752;3553
748;3554
745;3555
743;3556
741;3557
740;3558
739;3559
740;3560
741;3561
743;3562
744;3563
748;3564
749;3565
751;3566
752;3567
753;3568
755;3569
756;3570
758;3571
760;3572
761;3573
761;3574
762;3575
763;3576
763;3577
763;3578
763;3579
763;3580
763;3581
763;3582
763;3583
763;3584
763;3585
764;3586
763;3587
764;3588
763;3589
762;3590
761;3591
760;3592
759;3593
757;3594
755;3595
754;3596
754;3597
754;3598
754;3599
753;3600
752;3601
751;3602
750;3603
748;3604
745;3605
741;3606
737;3607
731;3608
729;3609
727;3610
725;3611
725;3612
725;3613
726;3614
727;3615
728;3616
729;3617
732;3618
735;3619
740;3620
742;3621
744;3622
745;3623
747;3624
750;3625
753;3626
754;3627
755;3628
756;3629
757;3630
758;3631
758;3632
760;3633
760;3634
758;3635
756;3636
754;3637
753;3638
749;3639
747;3640
746;3641
745;3642
744;3643
743;3644
744;3645
744;3646
745;3647
746;3648
747;3649
748;3650
750;3651
751;3652
752;3653
753;3654
754;3655
755;3656
757;3657
758;3658
759;3659
761;3660
762;3661
763;3662
764;3663
765;3664
765;3665
765;3666
765;3667
765;3668
766;3669
767;3670
767;3671
767;3672
767;3673
766;3674
765;3675
759;3676
757;3677
754;3678
752;3679
751;3680
749;3681
749;3682
749;3683
749;3684
749;3685
750;3686
750;3687
747;3688
745;3689
743;3690
741;3691
741;3692
739;3693
736;3694
734;3695
733;3696
733;3697
732;3698
733;3699
732;3700
732;3701
732;3702
731;3703
729;3704
727;3705
724;3706
723;3707
722;3708
722;3709
724;3710
726;3711
728;3712
734;3713
737;3714
740;3715
743;3716
746;3717
749;3718
752;3719
751;3720
749;3721
746;3722
742;3723
737;3724
731;3725
729;3726
728;3727
727;3728
728;3729
729;3730
733;3731
736;3732
739;3733
742;3734
745;3735
747;3736
749;3737
752;3738
753;3739
754;3740
755;3741
756;3742
756;3743
758;3744
758;3745
758;3746
757;3747
758;3748
758;3749
758;3750
758;3751
759;3752
760;3753
761;3754
762;3755
763;3756
763;3757
764;3758
765;3759
766;3760
766;3761
767;3762
768;3763
769;3764
769;3765
770;3766
770;3767
770;3768
770;3769
770;3770
770;3771
770;3772
769;3773
769;3774
766;3775
765;3776
763;3777
761;3778
759;3779
757;3780
757;3781
756;3782
755;3783
754;3784
752;3785
751;3786
748;3787
747;3788
745;3789
744;3790
744;3791
743;3792
743;3793
744;3794
745;3795
746;3796
748;3797
748;3798
750;3799
751;3800
750;3801
750;3802
749;3803
749;3804
747;3805
745;3806
745;3807
746;3808
746;3809
746;3810
747;3811
748;3812
748;3813
749;3814
750;3815
751;3816
752;3817
752;3818
752;3819
752;3820
752;3821
752;3822
752;3823
751;3824
750;3825
749;3826
748;3827
746;3828
742;3829
739;3830
732;3831
729;3832
727;3833
726;3834
725;3835
725;3836
727;3837
729;3838
731;3839
733;3840
736;3841
737;3842
738;3843
739;3844
739;3845
740;3846
740;3847
740;3848
741;3849
741;3850
741;3851
741;3852
740;3853
740;3854
740;3855
741;3856
742;3857
742;3858
742;3859
741;3860
741;3861
740;3862
740;3863
740;3864
740;3865
741;3866
741;3867
742;3868
743;3869
745;3870
746;3871
748;3872
749;3873
746;3874
743;3875
741;3876
740;3877
738;3878
737;3879
737;3880
738;3881
739;3882
741;3883
742;3884
744;3885
746;3886
749;3887
751;3888
753;3889
755;3890
757;3891
759;3892
762;3893
762;3894
763;3895
763;3896
763;3897
763;3898
764;3899
764;3900
765;3901
765;3902
764;3903
763;3904
758;3905
756;3906
754;3907
752;3908
751;3909
750;3910
749;3911
749;3912
750;3913
751;3914
751;3915
752;3916
755;3917
756;3918
757;3919
758;3920
760;3921
761;3922
760;3923
756;3924
754;3925
752;3926
750;3927
748;3928
746;3929
743;3930
743;3931
744;3932
745;3933
746;3934
749;3935
753;3936
755;3937
756;3938
755;3939
754;3940
753;3941
749;3942
747;3943
745;3944
744;3945
742;3946
741;3947
740;3948
740;3949
741;3950
742;3951
743;3952
743;3953
743;3954
743;3955
743;3956
744;3957
745;3958
747;3959
748;3960
752;3961
754;3962
755;3963
757;3964
757;3965
759;3966
760;3967
760;3968
761;3969
760;3970
760;3971
758;3972
755;3973
754;3974
752;3975
750;3976
747;3977
744;3978
741;3979
740;3980
741;3981
741;3982
742;3983
743;3984
744;3985
747;3986
749;3987
751;3988
752;3989
754;3990
756;3991
759;3992
760;3993
761;3994
762;3995
762;3996
763;3997
762;3998
761;3999
759;4000
757;4001
755;4002
753;4003
750;4004
749;4005
747;4006
747;4007
746;4008
746;4009
746;4010
745;4011
745;4012
744;4013
744;4014
744;4015
745;4016
747;4017
748;4018
750;4019
752;4020
754;4021
756;4022
761;4023
763;4024
765;4025
766;4026
765;4027
763;4028
758;4029
755;4030
751;4031
748;4032
745;4033
743;4034
741;4035
741;4036
742;4037
744;4038
745;4039
747;4040
748;4041
750;4042
751;4043
752;4044
752;4045
753;4046
753;4047
752;4048
752;4049
751;4050
751;4051
751;4052
751;4053
752;4054
751;4055
750;4056
748;4057
746;4058
744;4059
741;4060
741;4061
741;4062
741;4063
741;4064
741;4065
741;4066
738;4067
737;4068
737;4069
736;4070
736;4071
736;4072
737;4073
738;4074
739;4075
741;4076
742;4077
744;4078
748;4079
749;4080
751;4081
753;4082
756;4083
758;4084
761;4085
761;4086
761;4087
760;4088
759;4089
759;4090
758;4091
758;4092
758;4093
759;4094
760;4095
760;4096
756;4097
745;4098
739;4099
735;4100
730;4101
726;4102
722;4103
720;4104
720;4105
721;4106
723;4107
726;4108
728;4109
734;4110
736;4111
739;4112
741;4113
742;4114
744;4115
748;4116
750;4117
752;4118
754;4119
755;4120
756;4121
759;4122
761;4123
763;4124
765;4125
767;4126
768;4127
768;4128
768;4129
767;4130
767;4131
767;4132
767;4133
767;4134
768;4135
768;4136
767;4137
767;4138
767;4139
766;4140
764;4141
763;4142
763;4143
763;4144
762;4145
762;4146
761;4147
761;4148
759;4149
758;4150
758;4151
756;4152
756;4153
755;4154
754;4155
754;4156
753;4157
754;4158
754;4159
755;4160
756;4161
757;4162
758;4163
759;4164
760;4165
762;4166
762;4167
763;4168
764;4169
765;4170
765;4171
766;4172
766;4173
766;4174
766;4175
767;4176
766;4177
759;4178
754;4179
748;4180
741;4181
734;4182
729;4183
723;4184
721;4185
722;4186
722;4187
724;4188
725;4189
730;4190
733;4191
737;4192
740;4193
743;4194
746;4195
748;4196
752;4197
754;4198
755;4199
757;4200
759;4201
760;4202
762;4203
762;4204
761;4205
760;4206
760;4207
759;4208
758;4209
757;4210
757;4211
757;4212
758;4213
759;4214
760;4215
760;4216
760;4217
759;4218
759;4219
758;4220
758;4221
757;4222
756;4223
755;4224
755;4225
755;4226
755;4227
755;4228
754;4229
753;4230
753;4231
753;4232
754;4233
756;4234
757;4235
759;4236
759;4237
760;4238
760;4239
759;4240
758;4241
757;4242
756;4243
756;4244
755;4245
754;4246
752;4247
751;4248
751;4249
750;4250
750;4251
751;4252
753;4253
754;4254
755;4255
757;4256
759;4257
760;4258
764;4259
765;4260
766;4261
766;4262
766;4263
767;4264
767;4265
767;4266
768;4267
768;4268
768;4269
768;4270
769;4271
770;4272
771;4273
771;4274
771;4275
771;4276
772;4277
772;4278
773;4279
773;4280
772;4281
772;4282
772;4283
771;4284
768;4285
764;4286
761;4287
759;4288
753;4289
750;4290
747;4291
744;4292
742;4293
740;4294
739;4295
739;4296
740;4297
741;4298
743;4299
745;4300
747;4301
751;4302
753;4303
755;4304
756;4305
758;4306
758;4307
759;4308
760;4309
760;4310
760;4311
761;4312
760;4313
757;4314
754;4315
751;4316
746;4317
742;4318
738;4319
730;4320
726;4321
723;4322
720;4323
717;4324
716;4325
715;4326
717;4327
719;4328
722;4329
724;4330
728;4331
732;4332
741;4333
744;4334
748;4335
751;4336
754;4337
756;4338
761;4339
762;4340
764;4341
766;4342
768;4343
770;4344
773;4345
774;4346
775;4347
776;4348
776;4349
776;4350
776;4351
777;4352
778;4353
777;4354
776;4355
774;4356
772;4357
765;4358
759;4359
755;4360
750;4361
747;4362
745;4363
745;4364
746;4365
747;4366
750;4367
752;4368
755;4369
760;4370
763;4371
765;4372
767;4373
768;4374
768;4375
770;4376
770;4377
770;4378
769;4379
768;4380
765;4381
757;4382
754;4383
752;4384
750;4385
748;4386
747;4387
745;4388
745;4389
745;4390
745;4391
746;4392
747;4393
747;4394
743;4395
739;4396
736;4397
732;4398
728;4399
726;4400
724;4401
724;4402
725;4403
727;4404
729;4405
731;4406
737;4407
740;4408
744;4409
747;4410
751;4411
754;4412
757;4413
762;4414
765;4415
767;4416
770;4417
771;4418
772;4419
773;4420
774;4421
774;4422
774;4423
774;4424
774;4425
772;4426
771;4427
770;4428
770;4429
769;4430
769;4431
768;4432
767;4433
767;4434
765;4435
764;4436
763;4437
762;4438
761;4439
761;4440
762;4441
763;4442
764;4443
766;4444
767;4445
768;4446
767;4447
763;4448
760;4449
757;4450
752;4451
751;4452
751;4453
750;4454
750;4455
749;4456
747;4457
747;4458
747;4459
748;4460
749;4461
750;4462
751;4463
752;4464
752;4465
753;4466
754;4467
754;4468
755;4469
756;4470
757;4471
757;4472
759;4473
759;4474
759;4475
757;4476
756;4477
755;4478
754;4479
752;4480
749;4481
744;4482
742;4483
740;4484
740;4485
740;4486
741;4487
744;4488
745;4489
747;4490
749;4491
752;4492
754;4493
757;4494
759;4495
761;4496
762;4497
763;4498
764;4499
765;4500
764;4501
763;4502
762;4503
761;4504
760;4505
760;4506
760;4507
760;4508
760;4509
760;4510
760;4511
760;4512
761;4513
761;4514
761;4515
760;4516
759;4517
759;4518
757;4519
757;4520
757;4521
756;4522
756;4523
756;4524
755;4525
753;4526
752;4527
751;4528
750;4529
750;4530
751;4531
752;4532
754;4533
755;4534
756;4535
758;4536
761;4537
763;4538
764;4539
763;4540
762;4541
761;4542
760;4543
755;4544
752;4545
750;4546
747;4547
746;4548
745;4549
745;4550
745;4551
746;4552
747;4553
749;4554
750;4555
752;4556
755;4557
756;4558
758;4559
756;4560
753;4561
748;4562
739;4563
737;4564
735;4565
734;4566
735;4567
736;4568
738;4569
740;4570
742;4571
745;4572
748;4573
750;4574
755;4575
756;4576
756;4577
756;4578
755;4579
753;4580
748;4581
746;4582
744;4583
743;4584
742;4585
742;4586
742;4587
742;4588
743;4589
743;4590
744;4591
745;4592
746;4593
748;4594
749;4595
751;4596
752;4597
755;4598
756;4599
758;4600
758;4601
759;4602
760;4603
761;4604
761;4605
761;4606
761;4607
761;4608
761;4609
762;4610
763;4611
763;4612
764;4613
765;4614
765;4615
764;4616
763;4617
762;4618
762;4619
762;4620
761;4621
760;4622
759;4623
756;4624
755;4625
754;4626
755;4627
755;4628
756;4629
756;4630
757;4631
756;4632
757;4633
756;4634
755;4635
755;4636
753;4637
752;4638
750;4639
749;4640
748;4641
746;4642
741;4643
739;4644
735;4645
731;4646
728;4647
726;4648
724;4649
723;4650
723;4651
723;4652
723;4653
722;4654
722;4655
723;4656
725;4657
727;4658
728;4659
730;4660
733;4661
736;4662
738;4663
739;4664
740;4665
741;4666
742;4667
743;4668
744;4669
746;4670
747;4671
749;4672
750;4673
752;4674
753;4675
755;4676
755;4677
756;4678
757;4679
758;4680
759;4681
760;4682
760;4683
761;4684
762;4685
763;4686
764;4687
765;4688
764;4689
765;4690
766;4691
767;4692
768;4693
769;4694
770;4695
770;4696
770;4697
770;4698
769;4699
768;4700
767;4701
763;4702
760;4703
756;4704
751;4705
749;4706
747;4707
743;4708
740;4709
737;4710
735;4711
735;4712
736;4713
737;4714
739;4715
741;4716
743;4717
748;4718
750;4719
752;4720
755;4721
757;4722
759;4723
761;4724
761;4725
761;4726
760;4727
760;4728
758;4729
749;4730
745;4731
741;4732
738;4733
735;4734
732;4735
729;4736
729;4737
729;4738
730;4739
731;4740
733;4741
736;4742
739;4743
740;4744
741;4745
741;4746
741;4747
742;4748
740;4749
738;4750
737;4751
736;4752
736;4753
736;4754
739;4755
741;4756
743;4757
746;4758
748;4759
751;4760
755;4761
757;4762
758;4763
761;4764
762;4765
763;4766
763;4767
763;4768
762;4769
761;4770
760;4771
759;4772
758;4773
758;4774
758;4775
759;4776
760;4777
761;4778
762;4779
764;4780
763;4781
762;4782
760;4783
760;4784
759;4785
758;4786
759;4787
760;4788
761;4789
762;4790
762;4791
762;4792
761;4793
761;4794
761;4795
761;4796
761;4797
761;4798
761;4799
760;4800
760;4801
758;4802
755;4803
752;4804
746;4805
744;4806
742;4807
740;4808
737;4809
735;4810
725;4811
721;4812
719;4813
718;4814
718;4815
719;4816
725;4817
728;4818
731;4819
736;4820
740;4821
744;4822
748;4823
753;4824
753;4825
753;4826
753;4827
753;4828
753;4829
754;4830
754;4831
755;4832
755;4833
757;4834
758;4835
760;4836
761;4837
761;4838
761;4839
762;4840
762;4841
763;4842
764;4843
764;4844
765;4845
765;4846
765;4847
762;4848
761;4849
759;4850
757;4851
754;4852
751;4853
749;4854
747;4855
747;4856
747;4857
748;4858
748;4859
748;4860
749;4861
749;4862
750;4863
750;4864
749;4865
749;4866
750;4867
751;4868
752;4869
753;4870
754;4871
756;4872
759;4873
760;4874
761;4875
761;4876
760;4877
760;4878
756;4879
754;4880
753;4881
751;4882
750;4883
750;4884
750;4885
751;4886
751;4887
752;4888
752;4889
753;4890
754;4891
756;4892
757;4893
757;4894
757;4895
757;4896
757;4897
757;4898
756;4899
755;4900
754;4901
752;4902
748;4903
738;4904
735;4905
733;4906
731;4907
731;4908
731;4909
733;4910
734;4911
736;4912
739;4913
741;4914
743;4915
745;4916
747;4917
747;4918
747;4919
747;4920
747;4921
747;4922
748;4923
749;4924
749;4925
751;4926
752;4927
753;4928
756;4929
755;4930
755;4931
754;4932
754;4933
754;4934
755;4935
756;4936
757;4937
759;4938
760;4939
760;4940
761;4941
761;4942
762;4943
762;4944
761;4945
761;4946
759;4947
757;4948
755;4949
753;4950
750;4951
748;4952
746;4953
744;4954
744;4955
744;4956
745;4957
746;4958
748;4959
750;4960
749;4961
748;4962
748;4963
747;4964
747;4965
747;4966
747;4967
748;4968
749;4969
750;4970
751;4971
752;4972
754;4973
754;4974
755;4975
756;4976
757;4977
758;4978
758;4979
758;4980
758;4981
758;4982
758;4983
758;4984
759;4985
760;4986
760;4987
761;4988
761;4989
760;4990
760;4991
759;4992
754;4993
748;4994
742;4995
738;4996
731;4997
726;4998
723;4999
721;5000
720;5001
720;5002
721;5003
725;5004
728;5005
731;5006
733;5007
736;5008
739;5009
744;5010
747;5011
748;5012
751;5013
752;5014
753;5015
755;5016
755;5017
756;5018
757;5019
757;5020
758;5021
759;5022
760;5023
761;5024
762;5025
764;5026
764;5027
766;5028
767;5029
769;5030
770;5031
771;5032
772;5033
771;5034
771;5035
769;5036
768;5037
766;5038
764;5039
761;5040
760;5041
759;5042
759;5043
759;5044
758;5045
756;5046
751;5047
750;5048
748;5049
746;5050
745;5051
744;5052
744;5053
745;5054
745;5055
746;5056
747;5057
749;5058
751;5059
752;5060
753;5061
754;5062
754;5063
755;5064
757;5065
756;5066
754;5067
751;5068
745;5069
737;5070
724;5071
720;5072
718;5073
717;5074
718;5075
717;5076
719;5077
721;5078
723;5079
727;5080
731;5081
735;5082
739;5083
746;5084
749;5085
751;5086
753;5087
754;5088
756;5089
757;5090
757;5091
757;5092
757;5093
757;5094
755;5095
750;5096
748;5097
746;5098
744;5099
743;5100
742;5101
742;5102
743;5103
743;5104
744;5105
746;5106
747;5107
750;5108
751;5109
752;5110
753;5111
753;5112
754;5113
756;5114
757;5115
759;5116
759;5117
760;5118
761;5119
763;5120
766;5121
767;5122
769;5123
771;5124
772;5125
773;5126
774;5127
774;5128
775;5129
775;5130
776;5131
774;5132
771;5133
769;5134
767;5135
766;5136
764;5137
763;5138
759;5139
758;5140
757;5141
756;5142
756;5143
756;5144
755;5145
757;5146
757;5147
758;5148
758;5149
757;5150
757;5151
757;5152
757;5153
757;5154
757;5155
757;5156
757;5157
758;5158
758;5159
759;5160
759;5161
760;5162
759;5163
759;5164
759;5165
759;5166
760;5167
760;5168
760;5169
755;5170
752;5171
749;5172
747;5173
746;5174
744;5175
737;5176
730;5177
723;5178
717;5179
712;5180
707;5181
703;5182
703;5183
703;5184
704;5185
705;5186
707;5187
710;5188
716;5189
720;5190
724;5191
728;5192
733;5193
736;5194
744;5195
747;5196
751;5197
754;5198
756;5199
758;5200
763;5201
764;5202
766;5203
767;5204
769;5205
769;5206
769;5207
769;5208
768;5209
768;5210
768;5211
767;5212
767;5213
767;5214
766;5215
766;5216
766;5217
766;5218
764;5219
760;5220
758;5221
756;5222
754;5223
753;5224
752;5225
751;5226
751;5227
751;5228
752;5229
752;5230
753;5231
755;5232
756;5233
757;5234
758;5235
759;5236
760;5237
762;5238
762;5239
762;5240
762;5241
761;5242
760;5243
759;5244
757;5245
757;5246
758;5247
758;5248
757;5249
755;5250
749;5251
746;5252
745;5253
744;5254
742;5255
742;5256
743;5257
744;5258
745;5259
747;5260
749;5261
750;5262
753;5263
753;5264
753;5265
753;5266
752;5267
751;5268
749;5269
748;5270
748;5271
748;5272
748;5273
748;5274
741;5275
739;5276
738;5277
737;5278
738;5279
740;5280
741;5281
745;5282
748;5283
750;5284
753;5285
756;5286
759;5287
763;5288
766;5289
768;5290
769;5291
770;5292
771;5293
771;5294
770;5295
768;5296
767;5297
765;5298
763;5299
758;5300
755;5301
752;5302
749;5303
745;5304
741;5305
738;5306
736;5307
735;5308
735;5309
736;5310
737;5311
738;5312
740;5313
741;5314
742;5315
744;5316
746;5317
748;5318
752;5319
753;5320
756;5321
758;5322
760;5323
761;5324
764;5325
765;5326
766;5327
766;5328
766;5329
764;5330
758;5331
755;5332
753;5333
751;5334
750;5335
748;5336
746;5337
745;5338
744;5339
742;5340
740;5341
738;5342
738;5343
737;5344
738;5345
739;5346
741;5347
743;5348
745;5349
749;5350
749;5351
749;5352
748;5353
748;5354
748;5355
747;5356
747;5357
748;5358
748;5359
749;5360
750;5361
752;5362
753;5363
754;5364
755;5365
755;5366
752;5367
745;5368
742;5369
741;5370
740;5371
739;5372
739;5373
740;5374
741;5375
743;5376
744;5377
746;5378
749;5379
751;5380
755;5381
756;5382
758;5383
760;5384
761;5385
763;5386
765;5387
766;5388
766;5389
766;5390
765;5391
763;5392
762;5393
761;5394
760;5395
760;5396
759;5397
759;5398
758;5399
757;5400
757;5401
757;5402
756;5403
756;5404
755;5405
754;5406
754;5407
754;5408
754;5409
753;5410
753;5411
752;5412
753;5413
754;5414
755;5415
756;5416
757;5417
758;5418
758;5419
758;5420
756;5421
753;5422
751;5423
747;5424
745;5425
744;5426
743;5427
743;5428
743;5429
744;5430
745;5431
747;5432
748;5433
751;5434
753;5435
757;5436
760;5437
761;5438
763;5439
763;5440
762;5441
763;5442
764;5443
764;5444
765;5445
766;5446
767;5447
768;5448
768;5449
766;5450
764;5451
760;5452
757;5453
753;5454
746;5455
743;5456
741;5457
739;5458
738;5459
737;5460
736;5461
737;5462
738;5463
739;5464
740;5465
742;5466
744;5467
747;5468
748;5469
750;5470
750;5471
751;5472
751;5473
740;5474
734;5475
729;5476
725;5477
722;5478
721;5479
721;5480
721;5481
723;5482
725;5483
727;5484
730;5485
737;5486
740;5487
744;5488
747;5489
749;5490
751;5491
754;5492
755;5493
755;5494
755;5495
756;5496
756;5497
758;5498
757;5499
756;5500
755;5501
754;5502
753;5503
752;5504
750;5505
750;5506
748;5507
746;5508
745;5509
745;5510
748;5511
749;5512
751;5513
752;5514
754;5515
756;5516
759;5517
760;5518
761;5519
760;5520
759;5521
758;5522
754;5523
751;5524
750;5525
749;5526
748;5527
749;5528
750;5529
751;5530
753;5531
754;5532
756;5533
758;5534
761;5535
763;5536
764;5537
765;5538
766;5539
767;5540
764;5541
761;5542
758;5543
754;5544
751;5545
748;5546
745;5547
741;5548
739;5549
738;5550
738;5551
739;5552
740;5553
744;5554
745;5555
747;5556
749;5557
752;5558
754;5559
758;5560
760;5561
762;5562
763;5563
764;5564
764;5565
764;5566
763;5567
761;5568
759;5569
754;5570
747;5571
736;5572
732;5573
730;5574
729;5575
729;5576
729;5577
730;5578
731;5579
732;5580
733;5581
732;5582
730;5583
729;5584
727;5585
728;5586
728;5587
729;5588
731;5589
732;5590
734;5591
735;5592
738;5593
741;5594
744;5595
747;5596
750;5597
751;5598
752;5599
754;5600
754;5601
755;5602
756;5603
758;5604
759;5605
759;5606
760;5607
760;5608
759;5609
757;5610
756;5611
755;5612
754;5613
754;5614
754;5615
755;5616
756;5617
757;5618
758;5619
760;5620
761;5621
764;5622
764;5623
765;5624
765;5625
765;5626
765;5627
763;5628
761;5629
758;5630
756;5631
754;5632
752;5633
749;5634
748;5635
747;5636
746;5637
744;5638
743;5639
742;5640
740;5641
739;5642
738;5643
737;5644
736;5645
736;5646
736;5647
736;5648
738;5649
739;5650
740;5651
742;5652
746;5653
748;5654
749;5655
751;5656
751;5657
748;5658
739;5659
733;5660
725;5661
717;5662
710;5663
706;5664
702;5665
703;5666
704;5667
705;5668
707;5669
710;5670
712;5671
719;5672
722;5673
726;5674
730;5675
733;5676
736;5677
741;5678
742;5679
744;5680
745;5681
746;5682
747;5683
749;5684
750;5685
752;5686
753;5687
754;5688
755;5689
757;5690
758;5691
759;5692
761;5693
762;5694
764;5695
766;5696
767;5697
769;5698
770;5699
771;5700
772;5701
773;5702
775;5703
775;5704
776;5705
776;5706
776;5707
776;5708
774;5709
771;5710
769;5711
767;5712
765;5713
763;5714
760;5715
759;5716
759;5717
759;5718
758;5719
755;5720
748;5721
745;5722
741;5723
738;5724
736;5725
735;5726
734;5727
734;5728
735;5729
737;5730
738;5731
740;5732
745;5733
747;5734
749;5735
751;5736
753;5737
755;5738
758;5739
760;5740
761;5741
763;5742
764;5743
765;5744
764;5745
758;5746
753;5747
748;5748
743;5749
739;5750
736;5751
731;5752
730;5753
729;5754
729;5755
728;5756
729;5757
725;5758
722;5759
720;5760
719;5761
719;5762
720;5763
722;5764
724;5765
726;5766
728;5767
731;5768
734;5769
740;5770
744;5771
747;5772
749;5773
752;5774
754;5775
756;5776
757;5777
756;5778
755;5779
755;5780
755;5781
755;5782
754;5783
753;5784
752;5785
752;5786
752;5787
751;5788
752;5789
752;5790
753;5791
754;5792
754;5793
754;5794
753;5795
751;5796
748;5797
745;5798
742;5799
739;5800
737;5801
728;5802
724;5803
721;5804
719;5805
719;5806
719;5807
721;5808
723;5809
725;5810
728;5811
730;5812
733;5813
739;5814
741;5815
743;5816
744;5817
745;5818
746;5819
745;5820
744;5821
744;5822
744;5823
744;5824
744;5825
745;5826
746;5827
747;5828
748;5829
749;5830
750;5831
753;5832
754;5833
754;5834
755;5835
754;5836
753;5837
748;5838
745;5839
738;5840
731;5841
724;5842
719;5843
715;5844
712;5845
712;5846
713;5847
715;5848
717;5849
719;5850
725;5851
728;5852
732;5853
736;5854
739;5855
742;5856
747;5857
749;5858
751;5859
752;5860
754;5861
754;5862
757;5863
757;5864
756;5865
754;5866
751;5867
749;5868
746;5869
741;5870
740;5871
739;5872
739;5873
739;5874
738;5875
736;5876
735;5877
735;5878
735;5879
736;5880
738;5881
737;5882
737;5883
736;5884
735;5885
735;5886
734;5887
733;5888
731;5889
731;5890
731;5891
731;5892
732;5893
735;5894
737;5895
738;5896
741;5897
744;5898
746;5899
748;5900
752;5901
754;5902
755;5903
756;5904
756;5905
756;5906
754;5907
753;5908
753;5909
753;5910
753;5911
754;5912
757;5913
757;5914
758;5915
758;5916
759;5917
758;5918
752;5919
745;5920
739;5921
734;5922
731;5923
729;5924
728;5925
729;5926
730;5927
730;5928
730;5929
731;5930
733;5931
737;5932
739;5933
741;5934
741;5935
740;5936
740;5937
738;5938
736;5939
735;5940
731;5941
727;5942
723;5943
717;5944
715;5945
714;5946
715;5947
716;5948
717;5949
719;5950
725;5951
728;5952
732;5953
736;5954
739;5955
743;5956
750;5957
752;5958
755;5959
758;5960
760;5961
762;5962
765;5963
765;5964
765;5965
765;5966
763;5967
760;5968
751;5969
747;5970
743;5971
740;5972
734;5973
728;5974
718;5975
714;5976
711;5977
708;5978
704;5979
701;5980
693;5981
690;5982
688;5983
687;5984
688;5985
690;5986
693;5987
697;5988
699;5989
701;5990
703;5991
706;5992
709;5993
714;5994
717;5995
721;5996
724;5997
727;5998
730;5999
736;6000
740;6001
743;6002
746;6003
749;6004
751;6005
755;6006
756;6007
758;6008
758;6009
758;6010
758;6011
758;6012
759;6013
760;6014
760;6015
758;6016
756;6017
749;6018
733;6019
727;6020
723;6021
720;6022
719;6023
719;6024
719;6025
719;6026
719;6027
719;6028
720;6029
722;6030
727;6031
731;6032
734;6033
737;6034
740;6035
741;6036
744;6037
745;6038
746;6039
748;6040
750;6041
753;6042
755;6043
757;6044
757;6045
757;6046
757;6047
756;6048
756;6049
755;6050
754;6051
755;6052
755;6053
755;6054
755;6055
754;6056
754;6057
753;6058
753;6059
753;6060
753;6061
755;6062
757;6063
758;6064
760;6065
761;6066
763;6067
765;6068
767;6069
766;6070
765;6071
763;6072
760;6073
758;6074
754;6075
752;6076
749;6077
748;6078
745;6079
740;6080
733;6081
731;6082
730;6083
731;6084
732;6085
732;6086
732;6087
731;6088
730;6089
730;6090
731;6091
732;6092
735;6093
736;6094
737;6095
738;6096
740;6097
742;6098
747;6099
749;6100
750;6101
752;6102
754;6103
755;6104
756;6105
755;6106
755;6107
755;6108
755;6109
755;6110
755;6111
757;6112
758;6113
758;6114
759;6115
760;6116
761;6117
763;6118
765;6119
765;6120
764;6121
763;6122
761;6123
758;6124
756;6125
754;6126
750;6127
748;6128
745;6129
743;6130
743;6131
743;6132
744;6133
745;6134
748;6135
750;6136
751;6137
752;6138
753;6139
753;6140
754;6141
756;6142
753;6143
750;6144
748;6145
748;6146
748;6147
749;6148
752;6149
753;6150
755;6151
757;6152
758;6153
760;6154
764;6155
766;6156
768;6157
769;6158
768;6159
766;6160
758;6161
754;6162
750;6163
746;6164
744;6165
743;6166
743;6167
742;6168
743;6169
743;6170
743;6171
741;6172
739;6173
737;6174
736;6175
736;6176
737;6177
737;6178
738;6179
736;6180
733;6181
731;6182
730;6183
730;6184
731;6185
734;6186
736;6187
739;6188
742;6189
744;6190
748;6191
754;6192
757;6193
760;6194
763;6195
765;6196
768;6197
772;6198
774;6199
775;6200
775;6201
774;6202
772;6203
769;6204
754;6205
747;6206
740;6207
736;6208
733;6209
731;6210
730;6211
730;6212
731;6213
733;6214
735;6215
737;6216
740;6217
741;6218
742;6219
741;6220
741;6221
741;6222
741;6223
742;6224
742;6225
743;6226
744;6227
746;6228
748;6229
753;6230
756;6231
758;6232
761;6233
764;6234
766;6235
769;6236
771;6237
772;6238
773;6239
774;6240
775;6241
777;6242
777;6243
777;6244
776;6245
772;6246
768;6247
761;6248
758;6249
755;6250
753;6251
752;6252
751;6253
751;6254
751;6255
750;6256
748;6257
743;6258
739;6259
731;6260
729;6261
727;6262
726;6263
727;6264
727;6265
729;6266
733;6267
734;6268
735;6269
736;6270
737;6271
738;6272
739;6273
739;6274
739;6275
738;6276
734;6277
729;6278
721;6279
720;6280
720;6281
722;6282
724;6283
726;6284
731;6285
735;6286
739;6287
743;6288
747;6289
750;6290
753;6291
756;6292
757;6293
757;6294
758;6295
758;6296
757;6297
755;6298
754;6299
753;6300
753;6301
753;6302
754;6303
756;6304
757;6305
759;6306
760;6307
762;6308
764;6309
767;6310
768;6311
770;6312
772;6313
773;6314
773;6315
769;6316
766;6317
764;6318
761;6319
758;6320
755;6321
751;6322
746;6323
743;6324
739;6325
733;6326
728;6327
723;6328
715;6329
713;6330
713;6331
713;6332
713;6333
715;6334
719;6335
721;6336
723;6337
726;6338
728;6339
731;6340
737;6341
740;6342
743;6343
746;6344
748;6345
751;6346
755;6347
756;6348
757;6349
755;6350
750;6351
747;6352
743;6353
742;6354
742;6355
744;6356
745;6357
746;6358
748;6359
752;6360
754;6361
757;6362
760;6363
763;6364
766;6365
769;6366
770;6367
771;6368
771;6369
770;6370
770;6371
768;6372
768;6373
768;6374
767;6375
766;6376
766;6377
765;6378
765;6379
765;6380
766;6381
766;6382
767;6383
768;6384
770;6385
770;6386
770;6387
769;6388
764;6389
760;6390
749;6391
743;6392
737;6393
732;6394
728;6395
724;6396
719;6397
719;6398
719;6399
720;6400
722;6401
725;6402
732;6403
735;6404
738;6405
739;6406
740;6407
740;6408
741;6409
740;6410
740;6411
740;6412
740;6413
741;6414
742;6415
745;6416
746;6417
747;6418
748;6419
748;6420
749;6421
751;6422
751;6423
752;6424
752;6425
749;6426
744;6427
735;6428
732;6429
729;6430
728;6431
728;6432
727;6433
728;6434
731;6435
733;6436
736;6437
739;6438
743;6439
746;6440
749;6441
750;6442
749;6443
750;6444
750;6445
750;6446
748;6447
747;6448
747;6449
746;6450
747;6451
748;6452
751;6453
753;6454
755;6455
757;6456
760;6457
761;6458
765;6459
766;6460
765;6461
763;6462
760;6463
757;6464
756;6465
755;6466
755;6467
755;6468
755;6469
753;6470
750;6471
745;6472
744;6473
742;6474
742;6475
742;6476
742;6477
745;6478
747;6479
749;6480
750;6481
752;6482
754;6483
757;6484
758;6485
759;6486
759;6487
759;6488
759;6489
757;6490
756;6491
753;6492
751;6493
749;6494
747;6495
746;6496
744;6497
743;6498
742;6499
741;6500
741;6501
741;6502
742;6503
743;6504
745;6505
746;6506
747;6507
749;6508
752;6509
753;6510
754;6511
756;6512
757;6513
758;6514
762;6515
764;6516
765;6517
765;6518
764;6519
760;6520
754;6521
752;6522
751;6523
751;6524
752;6525
751;6526
752;6527
752;6528
753;6529
754;6530
754;6531
755;6532
755;6533
749;6534
743;6535
737;6536
730;6537
723;6538
719;6539
711;6540
710;6541
709;6542
710;6543
712;6544
714;6545
718;6546
720;6547
722;6548
724;6549
727;6550
729;6551
734;6552
737;6553
740;6554
742;6555
745;6556
748;6557
750;6558
754;6559
756;6560
758;6561
759;6562
761;6563
762;6564
762;6565
761;6566
759;6567
757;6568
754;6569
751;6570
742;6571
738;6572
733;6573
729;6574
727;6575
725;6576
723;6577
723;6578
724;6579
726;6580
728;6581
731;6582
736;6583
737;6584
739;6585
740;6586
742;6587
744;6588
747;6589
752;6590
754;6591
757;6592
759;6593
761;6594
763;6595
759;6596
755;6597
752;6598
750;6599
749;6600
748;6601
745;6602
744;6603
744;6604
744;6605
744;6606
745;6607
747;6608
747;6609
748;6610
749;6611
749;6612
750;6613
750;6614
750;6615
750;6616
750;6617
750;6618
751;6619
751;6620
751;6621
750;6622
748;6623
743;6624
738;6625
727;6626
723;6627
719;6628
717;6629
716;6630
715;6631
714;6632
712;6633
712;6634
711;6635
711;6636
712;6637
713;6638
716;6639
718;6640
719;6641
721;6642
723;6643
725;6644
731;6645
734;6646
738;6647
742;6648
745;6649
749;6650
755;6651
758;6652
761;6653
763;6654
765;6655
767;6656
768;6657
768;6658
769;6659
769;6660
769;6661
769;6662
769;6663
766;6664
763;6665
761;6666
758;6667
755;6668
752;6669
747;6670
744;6671
743;6672
741;6673
740;6674
740;6675
741;6676
739;6677
737;6678
735;6679
734;6680
735;6681
739;6682
741;6683
743;6684
745;6685
748;6686
751;6687
753;6688
759;6689
762;6690
765;6691
766;6692
767;6693
768;6694
768;6695
766;6696
764;6697
760;6698
754;6699
749;6700
740;6701
737;6702
733;6703
729;6704
725;6705
721;6706
716;6707
714;6708
713;6709
713;6710
713;6711
715;6712
717;6713
722;6714
725;6715
728;6716
731;6717
733;6718
736;6719
740;6720
742;6721
744;6722
744;6723
744;6724
742;6725
741;6726
741;6727
741;6728
742;6729
742;6730
742;6731
742;6732
743;6733
744;6734
746;6735
747;6736
748;6737
750;6738
753;6739
755;6740
757;6741
758;6742
760;6743
761;6744
763;6745
764;6746
764;6747
764;6748
765;6749
764;6750
758;6751
753;6752
749;6753
745;6754
742;6755
740;6756
737;6757
736;6758
736;6759
737;6760
739;6761
740;6762
742;6763
743;6764
744;6765
745;6766
746;6767
747;6768
748;6769
748;6770
746;6771
741;6772
736;6773
732;6774
730;6775
729;6776
730;6777
731;6778
731;6779
732;6780
734;6781
733;6782
731;6783
730;6784
729;6785
728;6786
727;6787
727;6788
726;6789
726;6790
727;6791
728;6792
729;6793
729;6794
727;6795
726;6796
726;6797
727;6798
728;6799
729;6800
731;6801
732;6802
734;6803
735;6804
736;6805
738;6806
739;6807
741;6808
742;6809
744;6810
744;6811
745;6812
746;6813
746;6814
747;6815
748;6816
749;6817
750;6818
752;6819
756;6820
758;6821
760;6822
762;6823
764;6824
765;6825
765;6826
764;6827
763;6828
761;6829
759;6830
758;6831
757;6832
754;6833
753;6834
752;6835
752;6836
751;6837
751;6838
751;6839
752;6840
753;6841
754;6842
754;6843
755;6844
752;6845
749;6846
746;6847
744;6848
742;6849
740;6850
739;6851
739;6852
740;6853
741;6854
743;6855
745;6856
749;6857
751;6858
751;6859
751;6860
750;6861
748;6862
734;6863
726;6864
720;6865
715;6866
711;6867
708;6868
702;6869
700;6870
700;6871
701;6872
703;6873
706;6874
709;6875
716;6876
720;6877
724;6878
727;6879
729;6880
732;6881
735;6882
736;6883
737;6884
738;6885
738;6886
739;6887
739;6888
738;6889
736;6890
736;6891
735;6892
734;6893
735;6894
735;6895
736;6896
737;6897
739;6898
741;6899
743;6900
748;6901
750;6902
753;6903
755;6904
758;6905
760;6906
763;6907
765;6908
767;6909
769;6910
769;6911
769;6912
767;6913
766;6914
765;6915
763;6916
762;6917
758;6918
750;6919
747;6920
744;6921
742;6922
740;6923
738;6924
737;6925
735;6926
733;6927
732;6928
731;6929
729;6930
726;6931
717;6932
715;6933
713;6934
713;6935
715;6936
716;6937
720;6938
723;6939
726;6940
727;6941
729;6942
729;6943
731;6944
732;6945
733;6946
733;6947
734;6948
734;6949
734;6950
733;6951
733;6952
734;6953
735;6954
737;6955
739;6956
742;6957
743;6958
745;6959
746;6960
747;6961
747;6962
749;6963
750;6964
752;6965
753;6966
752;6967
750;6968
744;6969
739;6970
735;6971
730;6972
727;6973
724;6974
721;6975
716;6976
714;6977
713;6978
712;6979
713;6980
714;6981
718;6982
721;6983
723;6984
727;6985
729;6986
732;6987
736;6988
738;6989
741;6990
742;6991
744;6992
745;6993
748;6994
750;6995
751;6996
752;6997
754;6998
755;6999
757;7000
758;7001
759;7002
759;7003
758;7004
756;7005
755;7006
755;7007
755;7008
756;7009
757;7010
757;7011
758;7012
759;7013
759;7014
758;7015
756;7016
751;7017
741;7018
738;7019
734;7020
733;7021
730;7022
728;7023
726;7024
725;7025
725;7026
725;7027
725;7028
725;7029
725;7030
727;7031
728;7032
729;7033
730;7034
731;7035
732;7036
735;7037
737;7038
740;7039
742;7040
743;7041
745;7042
749;7043
750;7044
751;7045
752;7046
751;7047
748;7048
741;7049
736;7050
732;7051
728;7052
724;7053
720;7054
715;7055
713;7056
713;7057
713;7058
714;7059
715;7060
720;7061
722;7062
725;7063
728;7064
732;7065
734;7066
737;7067
741;7068
742;7069
742;7070
741;7071
740;7072
739;7073
734;7074
732;7075
729;7076
728;7077
728;7078
730;7079
733;7080
735;7081
738;7082
740;7083
743;7084
746;7085
751;7086
754;7087
757;7088
759;7089
760;7090
760;7091
760;7092
759;7093
759;7094
758;7095
758;7096
757;7097
757;7098
757;7099
755;7100
754;7101
753;7102
751;7103
749;7104
748;7105
747;7106
746;7107
745;7108
745;7109
745;7110
741;7111
737;7112
734;7113
732;7114
732;7115
732;7116
732;7117
733;7118
733;7119
734;7120
733;7121
734;7122
735;7123
736;7124
738;7125
739;7126
740;7127
742;7128
743;7129
744;7130
743;7131
741;7132
739;7133
737;7134
735;7135
732;7136
731;7137
730;7138
730;7139
730;7140
730;7141
733;7142
735;7143
737;7144
739;7145
742;7146
744;7147
746;7148
747;7149
747;7150
747;7151
748;7152
748;7153
744;7154
741;7155
739;7156
736;7157
735;7158
733;7159
732;7160
732;7161
732;7162
733;7163
735;7164
736;7165
737;7166
735;7167
732;7168
731;7169
728;7170
727;7171
727;7172
727;7173
728;7174
729;7175
731;7176
732;7177
734;7178
735;7179
738;7180
739;7181
740;7182
741;7183
741;7184
741;7185
741;7186
741;7187
741;7188
742;7189
743;7190
743;7191
744;7192
745;7193
744;7194
744;7195
744;7196
745;7197
746;7198
747;7199
748;7200
749;7201
750;7202
751;7203
753;7204
754;7205
755;7206
756;7207
757;7208
758;7209
758;7210
759;7211
759;7212
760;7213
759;7214
758;7215
754;7216
744;7217
740;7218
737;7219
734;7220
732;7221
728;7222
719;7223
714;7224
711;7225
709;7226
709;7227
710;7228
714;7229
716;7230
719;7231
721;7232
722;7233
723;7234
724;7235
724;7236
725;7237
726;7238
728;7239
729;7240
732;7241
737;7242
740;7243
744;7244
746;7245
749;7246
751;7247
751;7248
749;7249
748;7250
745;7251
743;7252
741;7253
737;7254
733;7255
730;7256
728;7257
725;7258
723;7259
720;7260
719;7261
718;7262
717;7263
717;7264
716;7265
718;7266
719;7267
722;7268
723;7269
726;7270
728;7271
730;7272
735;7273
737;7274
739;7275
741;7276
743;7277
744;7278
748;7279
750;7280
751;7281
753;7282
755;7283
757;7284
760;7285
761;7286
762;7287
763;7288
763;7289
764;7290
764;7291
763;7292
762;7293
761;7294
759;7295
753;7296
746;7297
734;7298
729;7299
725;7300
722;7301
719;7302
718;7303
717;7304
718;7305
718;7306
718;7307
717;7308
716;7309
714;7310
715;7311
716;7312
716;7313
717;7314
718;7315
721;7316
723;7317
725;7318
728;7319
731;7320
734;7321
740;7322
743;7323
747;7324
749;7325
752;7326
754;7327
757;7328
758;7329
758;7330
759;7331
756;7332
754;7333
751;7334
744;7335
741;7336
738;7337
735;7338
733;7339
732;7340
731;7341
732;7342
732;7343
734;7344
736;7345
738;7346
741;7347
743;7348
745;7349
747;7350
749;7351
750;7352
753;7353
752;7354
752;7355
752;7356
751;7357
750;7358
748;7359
747;7360
745;7361
742;7362
741;7363
738;7364
736;7365
734;7366
734;7367
734;7368
734;7369
735;7370
737;7371
741;7372
743;7373
745;7374
747;7375
749;7376
750;7377
752;7378
753;7379
753;7380
753;7381
753;7382
753;7383
752;7384
751;7385
748;7386
743;7387
737;7388
729;7389
714;7390
709;7391
703;7392
697;7393
690;7394
685;7395
683;7396
684;7397
687;7398
690;7399
694;7400
698;7401
703;7402
713;7403
718;7404
724;7405
728;7406
731;7407
733;7408
735;7409
734;7410
733;7411
733;7412
732;7413
732;7414
733;7415
734;7416
735;7417
736;7418
736;7419
737;7420
737;7421
738;7422
738;7423
739;7424
741;7425
743;7426
746;7427
747;7428
748;7429
750;7430
750;7431
751;7432
752;7433
754;7434
755;7435
755;7436
755;7437
755;7438
755;7439
755;7440
754;7441
753;7442
753;7443
752;7444
752;7445
751;7446
749;7447
748;7448
745;7449
742;7450
739;7451
736;7452
731;7453
729;7454
727;7455
726;7456
725;7457
722;7458
719;7459
718;7460
717;7461
717;7462
718;7463
719;7464
721;7465
721;7466
721;7467
722;7468
724;7469
726;7470
732;7471
734;7472
737;7473
740;7474
743;7475
746;7476
751;7477
752;7478
753;7479
754;7480
754;7481
755;7482
755;7483
754;7484
754;7485
753;7486
752;7487
751;7488
747;7489
733;7490
729;7491
725;7492
723;7493
722;7494
722;7495
723;7496
724;7497
725;7498
726;7499
727;7500
729;7501
734;7502
737;7503
740;7504
742;7505
744;7506
744;7507
746;7508
746;7509
747;7510
748;7511
749;7512
750;7513
752;7514
753;7515
752;7516
750;7517
749;7518
748;7519
743;7520
741;7521
737;7522
732;7523
727;7524
722;7525
718;7526
711;7527
708;7528
707;7529
707;7530
707;7531
708;7532
706;7533
706;7534
706;7535
707;7536
709;7537
712;7538
718;7539
721;7540
724;7541
728;7542
732;7543
735;7544
739;7545
745;7546
749;7547
753;7548
756;7549
759;7550
762;7551
765;7552
765;7553
764;7554
763;7555
759;7556
754;7557
745;7558
742;7559
739;7560
736;7561
734;7562
732;7563
727;7564
722;7565
717;7566
712;7567
709;7568
707;7569
707;7570
707;7571
709;7572
712;7573
714;7574
717;7575
723;7576
726;7577
729;7578
732;7579
735;7580
737;7581
739;7582
742;7583
744;7584
745;7585
745;7586
747;7587
748;7588
751;7589
753;7590
754;7591
755;7592
755;7593
755;7594
755;7595
754;7596
754;7597
754;7598
754;7599
754;7600
752;7601
751;7602
749;7603
749;7604
748;7605
748;7606
747;7607
748;7608
748;7609
748;7610
747;7611
746;7612
743;7613
735;7614
730;7615
726;7616
723;7617
721;7618
721;7619
721;7620
722;7621
724;7622
725;7623
726;7624
728;7625
729;7626
731;7627
732;7628
731;7629
729;7630
728;7631
726;7632
723;7633
722;7634
720;7635
719;7636
718;7637
719;7638
719;7639
721;7640
722;7641
724;7642
726;7643
728;7644
732;7645
733;7646
735;7647
735;7648
733;7649
730;7650
725;7651
723;7652
721;7653
721;7654
720;7655
720;7656
721;7657
725;7658
727;7659
730;7660
733;7661
737;7662
740;7663
746;7664
749;7665
750;7666
752;7667
753;7668
753;7669
753;7670
753;7671
753;7672
753;7673
753;7674
753;7675
754;7676
755;7677
755;7678
755;7679
755;7680
753;7681
750;7682
748;7683
747;7684
746;7685
745;7686
745;7687
745;7688
745;7689
745;7690
745;7691
745;7692
745;7693
744;7694
745;7695
745;7696
745;7697
745;7698
745;7699
745;7700
744;7701
744;7702
743;7703
740;7704
737;7705
735;7706
733;7707
732;7708
732;7709
731;7710
728;7711
726;7712
721;7713
715;7714
713;7715
713;7716
713;7717
714;7718
715;7719
717;7720
719;7721
720;7722
722;7723
723;7724
727;7725
732;7726
734;7727
736;7728
739;7729
741;7730
743;7731
743;7732
743;7733
743;7734
744;7735
743;7736
743;7737
743;7738
742;7739
743;7740
743;7741
743;7742
742;7743
742;7744
739;7745
735;7746
730;7747
725;7748
720;7749
716;7750
710;7751
709;7752
708;7753
708;7754
709;7755
710;7756
714;7757
716;7758
719;7759
722;7760
725;7761
729;7762
732;7763
738;7764
740;7765
742;7766
744;7767
746;7768
748;7769
751;7770
752;7771
752;7772
752;7773
753;7774
752;7775
751;7776
750;7777
749;7778
748;7779
748;7780
748;7781
748;7782
746;7783
745;7784
745;7785
745;7786
745;7787
745;7788
741;7789
739;7790
737;7791
734;7792
730;7793
724;7794
714;7795
710;7796
706;7797
704;7798
702;7799
701;7800
704;7801
706;7802
709;7803
711;7804
714;7805
717;7806
723;7807
727;7808
730;7809
733;7810
736;7811
740;7812
744;7813
746;7814
748;7815
751;7816
753;7817
754;7818
757;7819
758;7820
758;7821
758;7822
757;7823
755;7824
750;7825
748;7826
745;7827
742;7828
738;7829
735;7830
732;7831
727;7832
725;7833
725;7834
726;7835
727;7836
728;7837
733;7838
735;7839
736;7840
734;7841
729;7842
724;7843
717;7844
715;7845
714;7846
714;7847
714;7848
715;7849
719;7850
721;7851
724;7852
727;7853
731;7854
735;7855
738;7856
744;7857
747;7858
749;7859
751;7860
753;7861
754;7862
755;7863
753;7864
750;7865
747;7866
744;7867
741;7868
738;7869
736;7870
735;7871
734;7872
733;7873
731;7874
725;7875
722;7876
720;7877
719;7878
718;7879
718;7880
718;7881
719;7882
719;7883
719;7884
718;7885
716;7886
714;7887
710;7888
709;7889
709;7890
710;7891
711;7892
713;7893
718;7894
722;7895
725;7896
729;7897
733;7898
736;7899
742;7900
744;7901
747;7902
749;7903
751;7904
753;7905
757;7906
759;7907
761;7908
763;7909
764;7910
764;7911
765;7912
766;7913
766;7914
767;7915
767;7916
767;7917
767;7918
768;7919
768;7920
767;7921
763;7922
757;7923
748;7924
732;7925
726;7926
721;7927
718;7928
716;7929
713;7930
712;7931
711;7932
709;7933
707;7934
705;7935
705;7936
707;7937
709;7938
712;7939
714;7940
716;7941
717;7942
718;7943
719;7944
719;7945
722;7946
724;7947
726;7948
729;7949
737;7950
740;7951
743;7952
746;7953
747;7954
748;7955
748;7956
748;7957
745;7958
742;7959
739;7960
736;7961
732;7962
731;7963
731;7964
731;7965
732;7966
732;7967
733;7968
735;7969
736;7970
736;7971
737;7972
738;7973
738;7974
740;7975
741;7976
741;7977
741;7978
742;7979
742;7980
740;7981
738;7982
735;7983
731;7984
728;7985
724;7986
719;7987
718;7988
717;7989
717;7990
717;7991
718;7992
721;7993
726;7994
729;7995
732;7996
735;7997
739;7998
741;7999
746;8000
749;8001
751;8002
753;8003
755;8004
757;8005
761;8006
763;8007
764;8008
765;8009
767;8010
768;8011
769;8012
769;8013
770;8014
768;8015
763;8016
756;8017
736;8018
726;8019
720;8020
714;8021
710;8022
706;8023
704;8024
703;8025
704;8026
705;8027
707;8028
710;8029
713;8030
722;8031
726;8032
730;8033
733;8034
736;8035
739;8036
743;8037
745;8038
747;8039
749;8040
751;8041
752;8042
754;8043
754;8044
755;8045
756;8046
756;8047
755;8048
753;8049
751;8050
748;8051
745;8052
743;8053
740;8054
738;8055
735;8056
734;8057
734;8058
733;8059
733;8060
734;8061
735;8062
736;8063
736;8064
737;8065
738;8066
740;8067
742;8068
743;8069
745;8070
745;8071
744;8072
740;8073
733;8074
729;8075
726;8076
723;8077
722;8078
721;8079
722;8080
724;8081
726;8082
729;8083
732;8084
735;8085
738;8086
744;8087
747;8088
749;8089
750;8090
751;8091
752;8092
753;8093
754;8094
755;8095
755;8096
755;8097
755;8098
755;8099
755;8100
753;8101
752;8102
749;8103
747;8104
744;8105
743;8106
743;8107
743;8108
744;8109
745;8110
746;8111
748;8112
750;8113
751;8114
752;8115
751;8116
747;8117
738;8118
734;8119
731;8120
729;8121
727;8122
725;8123
722;8124
721;8125
720;8126
719;8127
720;8128
720;8129
716;8130
713;8131
711;8132
710;8133
710;8134
711;8135
711;8136
712;8137
713;8138
712;8139
712;8140
713;8141
714;8142
718;8143
720;8144
723;8145
726;8146
728;8147
730;8148
732;8149
733;8150
733;8151
733;8152
734;8153
736;8154
738;8155
739;8156
740;8157
741;8158
741;8159
742;8160
743;8161
744;8162
745;8163
745;8164
745;8165
745;8166
744;8167
741;8168
739;8169
737;8170
735;8171
733;8172
732;8173
732;8174
732;8175
733;8176
734;8177
735;8178
737;8179
740;8180
742;8181
744;8182
746;8183
748;8184
750;8185
752;8186
754;8187
755;8188
756;8189
756;8190
756;8191
756;8192
752;8193
748;8194
744;8195
740;8196
737;8197
735;8198
733;8199
733;8200
733;8201
733;8202
733;8203
735;8204
737;8205
738;8206
739;8207
740;8208
740;8209
741;8210
742;8211
743;8212
743;8213
743;8214
743;8215
742;8216
742;8217
741;8218
740;8219
739;8220
738;8221
736;8222
735;8223
731;8224
730;8225
728;8226
725;8227
723;8228
720;8229
709;8230
705;8231
701;8232
700;8233
700;8234
702;8235
707;8236
709;8237
712;8238
714;8239
716;8240
717;8241
718;8242
718;8243
718;8244
718;8245
716;8246
715;8247
714;8248
714;8249
714;8250
715;8251
717;8252
719;8253
722;8254
728;8255
731;8256
734;8257
737;8258
740;8259
743;8260
748;8261
750;8262
751;8263
753;8264
755;8265
757;8266
758;8267
760;8268
761;8269
760;8270
760;8271
759;8272
756;8273
748;8274
744;8275
739;8276
736;8277
733;8278
731;8279
727;8280
726;8281
725;8282
725;8283
725;8284
725;8285
726;8286
726;8287
726;8288
725;8289
725;8290
726;8291
727;8292
729;8293
730;8294
732;8295
733;8296
735;8297
736;8298
739;8299
740;8300
742;8301
741;8302
740;8303
739;8304
735;8305
732;8306
729;8307
725;8308
722;8309
720;8310
718;8311
718;8312
718;8313
719;8314
720;8315
722;8316
725;8317
727;8318
729;8319
731;8320
733;8321
734;8322
736;8323
739;8324
741;8325
744;8326
746;8327
748;8328
751;8329
755;8330
757;8331
759;8332
760;8333
762;8334
763;8335
758;8336
754;8337
751;8338
748;8339
746;8340
744;8341
737;8342
731;8343
725;8344
720;8345
716;8346
713;8347
710;8348
707;8349
706;8350
705;8351
705;8352
705;8353
705;8354
707;8355
709;8356
711;8357
713;8358
716;8359
719;8360
724;8361
727;8362
729;8363
732;8364
735;8365
737;8366
741;8367
742;8368
743;8369
744;8370
743;8371
742;8372
738;8373
737;8374
736;8375
735;8376
735;8377
735;8378
735;8379
735;8380
734;8381
734;8382
733;8383
733;8384
733;8385
732;8386
733;8387
733;8388
734;8389
735;8390
736;8391
738;8392
739;8393
741;8394
743;8395
744;8396
744;8397
745;8398
746;8399
746;8400
747;8401
748;8402
749;8403
749;8404
751;8405
750;8406
750;8407
750;8408
749;8409
748;8410
747;8411
747;8412
747;8413
747;8414
747;8415
747;8416
747;8417
747;8418
747;8419
748;8420
747;8421
747;8422
747;8423
748;8424
748;8425
748;8426
748;8427
748;8428
748;8429
746;8430
744;8431
740;8432
737;8433
734;8434
731;8435
724;8436
716;8437
705;8438
694;8439
684;8440
677;8441
669;8442
667;8443
666;8444
667;8445
668;8446
671;8447
675;8448
687;8449
694;8450
701;8451
707;8452
713;8453
719;8454
728;8455
732;8456
735;8457
738;8458
740;8459
742;8460
745;8461
747;8462
749;8463
751;8464
752;8465
753;8466
753;8467
753;8468
752;8469
752;8470
750;8471
749;8472
748;8473
747;8474
747;8475
747;8476
747;8477
747;8478
748;8479
749;8480
750;8481
751;8482
752;8483
753;8484
756;8485
757;8486
757;8487
758;8488
757;8489
757;8490
757;8491
755;8492
754;8493
753;8494
752;8495
751;8496
750;8497
747;8498
745;8499
744;8500
743;8501
741;8502
740;8503
739;8504
740;8505
740;8506
741;8507
739;8508
737;8509
732;8510
729;8511
727;8512
726;8513
724;8514
722;8515
721;8516
721;8517
722;8518
723;8519
724;8520
726;8521
727;8522
728;8523
728;8524
728;8525
728;8526
728;8527
728;8528
728;8529
728;8530
727;8531
726;8532
723;8533
717;8534
703;8535
697;8536
693;8537
691;8538
690;8539
689;8540
691;8541
694;8542
697;8543
701;8544
705;8545
710;8546
715;8547
725;8548
729;8549
732;8550
736;8551
738;8552
739;8553
740;8554
741;8555
742;8556
742;8557
743;8558
744;8559
746;8560
747;8561
749;8562
750;8563
752;8564
754;8565
758;8566
759;8567
760;8568
761;8569
762;8570
762;8571
760;8572
758;8573
756;8574
753;8575
751;8576
748;8577
744;8578
742;8579
741;8580
739;8581
738;8582
737;8583
735;8584
732;8585
730;8586
729;8587
728;8588
728;8589
727;8590
726;8591
726;8592
727;8593
729;8594
731;8595
733;8596
737;8597
739;8598
742;8599
744;8600
745;8601
747;8602
749;8603
752;8604
754;8605
755;8606
752;8607
748;8608
744;8609
737;8610
733;8611
731;8612
729;8613
726;8614
723;8615
718;8616
716;8617
716;8618
715;8619
716;8620
717;8621
722;8622
725;8623
728;8624
731;8625
734;8626
736;8627
736;8628
731;8629
727;8630
723;8631
721;8632
720;8633
721;8634
722;8635
723;8636
725;8637
727;8638
729;8639
732;8640
738;8641
742;8642
746;8643
750;8644
753;8645
757;8646
761;8647
762;8648
763;8649
764;8650
764;8651
765;8652
765;8653
766;8654
765;8655
765;8656
763;8657
761;8658
758;8659
750;8660
745;8661
741;8662
736;8663
731;8664
727;8665
720;8666
718;8667
715;8668
712;8669
708;8670
704;8671
699;8672
698;8673
698;8674
699;8675
700;8676
702;8677
707;8678
711;8679
715;8680
719;8681
724;8682
729;8683
738;8684
742;8685
746;8686
749;8687
751;8688
753;8689
756;8690
757;8691
757;8692
756;8693
755;8694
753;8695
751;8696
746;8697
743;8698
741;8699
738;8700
736;8701
734;8702
732;8703
732;8704
733;8705
733;8706
732;8707
732;8708
733;8709
735;8710
736;8711
739;8712
741;8713
742;8714
744;8715
748;8716
750;8717
751;8718
751;8719
752;8720
752;8721
752;8722
752;8723
751;8724
751;8725
747;8726
742;8727
732;8728
729;8729
727;8730
727;8731
727;8732
727;8733
728;8734
729;8735
731;8736
733;8737
736;8738
738;8739
743;8740
745;8741
746;8742
748;8743
749;8744
750;8745
750;8746
749;8747
748;8748
747;8749
746;8750
744;8751
741;8752
734;8753
732;8754
729;8755
724;8756
720;8757
715;8758
706;8759
702;8760
700;8761
698;8762
697;8763
698;8764
701;8765
703;8766
705;8767
708;8768
710;8769
713;8770
715;8771
718;8772
720;8773
722;8774
723;8775
724;8776
725;8777
724;8778
723;8779
722;8780
722;8781
721;8782
721;8783
721;8784
722;8785
723;8786
724;8787
725;8788
726;8789
730;8790
732;8791
735;8792
737;8793
740;8794
742;8795
749;8796
752;8797
754;8798
756;8799
758;8800
759;8801
762;8802
762;8803
762;8804
760;8805
757;8806
753;8807
741;8808
734;8809
729;8810
726;8811
724;8812
723;8813
722;8814
721;8815
720;8816
720;8817
720;8818
721;8819
722;8820
726;8821
728;8822
731;8823
733;8824
736;8825
738;8826
743;8827
745;8828
747;8829
750;8830
753;8831
755;8832
759;8833
759;8834
759;8835
759;8836
758;8837
755;8838
744;8839
739;8840
734;8841
730;8842
727;8843
724;8844
721;8845
717;8846
715;8847
715;8848
715;8849
716;8850
717;8851
721;8852
724;8853
727;8854
730;8855
733;8856
736;8857
742;8858
744;8859
747;8860
749;8861
749;8862
750;8863
749;8864
749;8865
749;8866
749;8867
750;8868
749;8869
749;8870
748;8871
747;8872
748;8873
749;8874
750;8875
750;8876
751;8877
751;8878
751;8879
751;8880
750;8881
751;8882
752;8883
753;8884
755;8885
756;8886
756;8887
755;8888
751;8889
747;8890
745;8891
742;8892
740;8893
737;8894
733;8895
732;8896
731;8897
731;8898
731;8899
731;8900
730;8901
731;8902
730;8903
730;8904
730;8905
730;8906
730;8907
730;8908
730;8909
731;8910
732;8911
731;8912
725;8913
723;8914
721;8915
720;8916
719;8917
719;8918
719;8919
717;8920
716;8921
715;8922
713;8923
713;8924
714;8925
717;8926
717;8927
717;8928
717;8929
716;8930
716;8931
715;8932
715;8933
716;8934
718;8935
720;8936
723;8937
729;8938
730;8939
731;8940
732;8941
732;8942
734;8943
736;8944
737;8945
739;8946
740;8947
742;8948
744;8949
746;8950
749;8951
751;8952
754;8953
756;8954
758;8955
760;8956
762;8957
763;8958
764;8959
764;8960
764;8961
764;8962
764;8963
762;8964
759;8965
757;8966
754;8967
752;8968
746;8969
742;8970
737;8971
733;8972
730;8973
728;8974
725;8975
724;8976
724;8977
724;8978
723;8979
723;8980
723;8981
722;8982
722;8983
722;8984
722;8985
723;8986
724;8987
726;8988
728;8989
731;8990
732;8991
735;8992
737;8993
739;8994
744;8995
747;8996
749;8997
752;8998
754;8999
756;9000
759;9001
760;9002
760;9003
760;9004
758;9005
756;9006
752;9007
750;9008
748;9009
745;9010
739;9011
731;9012
715;9013
709;9014
703;9015
700;9016
697;9017
695;9018
695;9019
696;9020
698;9021
701;9022
704;9023
707;9024
710;9025
717;9026
719;9027
722;9028
724;9029
726;9030
726;9031
726;9032
728;9033
730;9034
731;9035
733;9036
735;9037
739;9038
740;9039
742;9040
745;9041
746;9042
748;9043
752;9044
755;9045
757;9046
758;9047
759;9048
759;9049
759;9050
758;9051
756;9052
755;9053
753;9054
751;9055
749;9056
747;9057
745;9058
744;9059
743;9060
742;9061
741;9062
739;9063
739;9064
739;9065
739;9066
739;9067
740;9068
741;9069
742;9070
743;9071
745;9072
746;9073
748;9074
750;9075
754;9076
756;9077
759;9078
761;9079
763;9080
765;9081
767;9082
767;9083
767;9084
766;9085
766;9086
765;9087
764;9088
763;9089
763;9090
761;9091
758;9092
756;9093
750;9094
746;9095
743;9096
739;9097
733;9098
725;9099
703;9100
694;9101
687;9102
682;9103
678;9104
677;9105
678;9106
679;9107
683;9108
686;9109
690;9110
694;9111
700;9112
712;9113
718;9114
723;9115
728;9116
733;9117
737;9118
744;9119
746;9120
749;9121
752;9122
755;9123
757;9124
758;9125
758;9126
758;9127
757;9128
756;9129
754;9130
748;9131
746;9132
742;9133
739;9134
735;9135
731;9136
728;9137
725;9138
724;9139
724;9140
724;9141
725;9142
727;9143
731;9144
733;9145
735;9146
738;9147
740;9148
743;9149
747;9150
749;9151
751;9152
753;9153
754;9154
756;9155
758;9156
759;9157
758;9158
757;9159
756;9160
754;9161
753;9162
753;9163
752;9164
752;9165
752;9166
752;9167
752;9168
753;9169
753;9170
753;9171
751;9172
748;9173
742;9174
739;9175
738;9176
736;9177
735;9178
733;9179
732;9180
730;9181
729;9182
728;9183
728;9184
728;9185
728;9186
730;9187
732;9188
732;9189
729;9190
723;9191
715;9192
701;9193
696;9194
693;9195
692;9196
691;9197
691;9198
694;9199
696;9200
698;9201
703;9202
707;9203
711;9204
716;9205
725;9206
729;9207
733;9208
736;9209
739;9210
742;9211
746;9212
747;9213
749;9214
750;9215
750;9216
749;9217
749;9218
749;9219
748;9220
747;9221
746;9222
744;9223
741;9224
739;9225
736;9226
735;9227
733;9228
732;9229
732;9230
732;9231
734;9232
736;9233
738;9234
740;9235
743;9236
748;9237
750;9238
753;9239
755;9240
757;9241
760;9242
763;9243
765;9244
767;9245
768;9246
769;9247
769;9248
769;9249
769;9250
769;9251
769;9252
769;9253
769;9254
767;9255
766;9256
765;9257
765;9258
765;9259
765;9260
764;9261
763;9262
761;9263
757;9264
753;9265
748;9266
744;9267
736;9268
732;9269
728;9270
724;9271
720;9272
717;9273
712;9274
710;9275
708;9276
706;9277
704;9278
699;9279
693;9280
691;9281
692;9282
693;9283
695;9284
697;9285
700;9286
702;9287
703;9288
705;9289
707;9290
709;9291
711;9292
717;9293
721;9294
724;9295
728;9296
731;9297
734;9298
738;9299
741;9300
743;9301
746;9302
748;9303
751;9304
754;9305
756;9306
758;9307
759;9308
760;9309
760;9310
759;9311
758;9312
757;9313
755;9314
754;9315
752;9316
749;9317
747;9318
746;9319
746;9320
746;9321
746;9322
747;9323
748;9324
750;9325
751;9326
752;9327
753;9328
756;9329
756;9330
756;9331
756;9332
756;9333
756;9334
755;9335
754;9336
754;9337
754;9338
755;9339
755;9340
756;9341
757;9342
757;9343
757;9344
756;9345
755;9346
754;9347
754;9348
753;9349
753;9350
753;9351
753;9352
753;9353
749;9354
744;9355
737;9356
730;9357
724;9358
719;9359
713;9360
712;9361
710;9362
710;9363
711;9364
712;9365
713;9366
714;9367
716;9368
717;9369
719;9370
720;9371
724;9372
726;9373
727;9374
728;9375
729;9376
731;9377
735;9378
738;9379
740;9380
742;9381
745;9382
747;9383
749;9384
754;9385
755;9386
756;9387
757;9388
758;9389
759;9390
760;9391
761;9392
762;9393
763;9394
763;9395
764;9396
762;9397
760;9398
755;9399
748;9400
742;9401
737;9402
728;9403
724;9404
721;9405
719;9406
717;9407
717;9408
718;9409
720;9410
722;9411
725;9412
728;9413
732;9414
735;9415
742;9416
745;9417
747;9418
748;9419
748;9420
749;9421
747;9422
746;9423
744;9424
741;9425
737;9426
734;9427
728;9428
726;9429
725;9430
723;9431
723;9432
723;9433
723;9434
725;9435
726;9436
727;9437
727;9438
727;9439
727;9440
727;9441
728;9442
728;9443
729;9444
730;9445
730;9446
733;9447
735;9448
738;9449
741;9450
743;9451
746;9452
751;9453
752;9454
753;9455
754;9456
754;9457
754;9458
754;9459
751;9460
750;9461
749;9462
747;9463
746;9464
744;9465
742;9466
741;9467
741;9468
741;9469
742;9470
743;9471
746;9472
747;9473
749;9474
750;9475
752;9476
753;9477
754;9478
754;9479
753;9480
753;9481
754;9482
753;9483
753;9484
754;9485
755;9486
755;9487
755;9488
754;9489
754;9490
753;9491
752;9492
751;9493
750;9494
748;9495
746;9496
740;9497
734;9498
726;9499
719;9500
714;9501
711;9502
707;9503
706;9504
705;9505
705;9506
706;9507
708;9508
713;9509
716;9510
720;9511
725;9512
728;9513
732;9514
739;9515
742;9516
745;9517
747;9518
749;9519
751;9520
754;9521
757;9522
759;9523
761;9524
762;9525
764;9526
764;9527
764;9528
765;9529
764;9530
764;9531
764;9532
763;9533
761;9534
760;9535
758;9536
757;9537
757;9538
756;9539
756;9540
756;9541
756;9542
755;9543
754;9544
750;9545
741;9546
736;9547
732;9548
728;9549
724;9550
720;9551
718;9552
714;9553
713;9554
713;9555
714;9556
715;9557
717;9558
721;9559
724;9560
725;9561
727;9562
729;9563
730;9564
733;9565
734;9566
736;9567
737;9568
738;9569
739;9570
740;9571
743;9572
744;9573
746;9574
747;9575
748;9576
748;9577
748;9578
747;9579
747;9580
747;9581
746;9582
745;9583
743;9584
742;9585
741;9586
740;9587
738;9588
736;9589
734;9590
734;9591
733;9592
734;9593
734;9594
735;9595
737;9596
737;9597
738;9598
738;9599
739;9600
740;9601
741;9602
742;9603
744;9604
745;9605
746;9606
746;9607
746;9608
747;9609
747;9610
747;9611
747;9612
746;9613
745;9614
742;9615
742;9616
742;9617
742;9618
742;9619
742;9620
743;9621
743;9622
743;9623
744;9624
744;9625
744;9626
746;9627
747;9628
748;9629
748;9630
749;9631
749;9632
748;9633
741;9634
738;9635
735;9636
733;9637
732;9638
731;9639
729;9640
729;9641
728;9642
726;9643
723;9644
721;9645
718;9646
717;9647
716;9648
716;9649
716;9650
716;9651
716;9652
717;9653
718;9654
719;9655
721;9656
724;9657
727;9658
732;9659
734;9660
737;9661
739;9662
741;9663
744;9664
748;9665
749;9666
752;9667
754;9668
756;9669
757;9670
758;9671
758;9672
756;9673
753;9674
750;9675
748;9676
742;9677
739;9678
738;9679
736;9680
735;9681
734;9682
730;9683
729;9684
728;9685
728;9686
728;9687
729;9688
730;9689
733;9690
736;9691
738;9692
740;9693
742;9694
744;9695
748;9696
750;9697
752;9698
754;9699
755;9700
757;9701
760;9702
760;9703
760;9704
760;9705
760;9706
760;9707
761;9708
761;9709
762;9710
762;9711
762;9712
762;9713
763;9714
761;9715
758;9716
755;9717
750;9718
745;9719
740;9720
729;9721
723;9722
718;9723
713;9724
709;9725
706;9726
703;9727
704;9728
703;9729
704;9730
704;9731
701;9732
694;9733
692;9734
692;9735
693;9736
694;9737
697;9738
701;9739
704;9740
708;9741
712;9742
716;9743
720;9744
729;9745
733;9746
737;9747
741;9748
745;9749
748;9750
751;9751
754;9752
755;9753
757;9754
759;9755
761;9756
761;9757
758;9758
756;9759
753;9760
750;9761
747;9762
745;9763
739;9764
737;9765
736;9766
734;9767
732;9768
730;9769
729;9770
729;9771
729;9772
731;9773
732;9774
734;9775
736;9776
741;9777
744;9778
747;9779
750;9780
753;9781
756;9782
761;9783
764;9784
766;9785
768;9786
769;9787
770;9788
771;9789
771;9790
771;9791
771;9792
770;9793
769;9794
764;9795
760;9796
757;9797
754;9798
751;9799
748;9800
743;9801
741;9802
740;9803
738;9804
735;9805
731;9806
723;9807
720;9808
718;9809
715;9810
713;9811
711;9812
709;9813
707;9814
707;9815
706;9816
704;9817
702;9818
699;9819
699;9820
701;9821
704;9822
707;9823
711;9824
714;9825
722;9826
726;9827
730;9828
734;9829
739;9830
742;9831
751;9832
755;9833
758;9834
761;9835
763;9836
764;9837
765;9838
765;9839
766;9840
766;9841
767;9842
767;9843
766;9844
762;9845
758;9846
755;9847
752;9848
749;9849
746;9850
743;9851
741;9852
741;9853
740;9854
740;9855
740;9856
741;9857
741;9858
741;9859
742;9860
742;9861
742;9862
744;9863
746;9864
747;9865
749;9866
751;9867
752;9868
754;9869
757;9870
758;9871
759;9872
760;9873
762;9874
762;9875
764;9876
764;9877
764;9878
765;9879
766;9880
766;9881
767;9882
767;9883
767;9884
767;9885
766;9886
764;9887
761;9888
755;9889
753;9890
751;9891
749;9892
748;9893
747;9894
744;9895
742;9896
740;9897
736;9898
732;9899
728;9900
722;9901
721;9902
721;9903
721;9904
722;9905
723;9906
726;9907
727;9908
730;9909
731;9910
734;9911
736;9912
740;9913
742;9914
745;9915
747;9916
749;9917
750;9918
751;9919
752;9920
752;9921
751;9922
748;9923
746;9924
743;9925
739;9926
737;9927
736;9928
735;9929
735;9930
735;9931
735;9932
735;9933
734;9934
734;9935
733;9936
733;9937
733;9938
732;9939
728;9940
725;9941
723;9942
722;9943
722;9944
723;9945
724;9946
724;9947
724;9948
723;9949
724;9950
724;9951
725;9952
726;9953
727;9954
729;9955
731;9956
735;9957
737;9958
739;9959
741;9960
743;9961
745;9962
747;9963
751;9964
752;9965
752;9966
753;9967
753;9968
754;9969
754;9970
753;9971
752;9972
751;9973
751;9974
751;9975
752;9976
752;9977
751;9978
751;9979
750;9980
749;9981
747;9982
745;9983
743;9984
741;9985
739;9986
739;9987
739;9988
739;9989
740;9990
739;9991
738;9992
737;9993
736;9994
735;9995
735;9996
735;9997
736;9998
738;9999
738;10000
740;10001
740;10002
741;10003
742;10004
743;10005
744;10006
743;10007
742;10008
742;10009
743;10010
743;10011
745;10012
745;10013
745;10014
744;10015
744;10016
743;10017
743;10018
742;10019
742;10020
742;10021
743;10022
743;10023
743;10024
743;10025
743;10026
744;10027
745;10028
746;10029
747;10030
748;10031
751;10032
753;10033
754;10034
756;10035
757;10036
759;10037
761;10038
762;10039
761;10040
757;10041
753;10042
750;10043
746;10044
745;10045
745;10046
744;10047
742;10048
740;10049
735;10050
734;10051
733;10052
732;10053
732;10054
733;10055
734;10056
735;10057
736;10058
736;10059
736;10060
737;10061
737;10062
740;10063
742;10064
744;10065
746;10066
747;10067
749;10068
752;10069
753;10070
751;10071
749;10072
746;10073
741;10074
732;10075
726;10076
722;10077
717;10078
714;10079
712;10080
710;10081
710;10082
710;10083
710;10084
711;10085
714;10086
719;10087
721;10088
724;10089
728;10090
731;10091
734;10092
738;10093
740;10094
742;10095
744;10096
745;10097
746;10098
746;10099
745;10100
746;10101
746;10102
747;10103
748;10104
749;10105
750;10106
751;10107
752;10108
753;10109
754;10110
755;10111
757;10112
759;10113
760;10114
761;10115
763;10116
764;10117
765;10118
765;10119
765;10120
764;10121
763;10122
762;10123
763;10124
763;10125
763;10126
764;10127
765;10128
765;10129
766;10130
768;10131
768;10132
769;10133
769;10134
768;10135
768;10136
765;10137
764;10138
762;10139
760;10140
759;10141
757;10142
755;10143
754;10144
753;10145
753;10146
753;10147
753;10148
753;10149
753;10150
752;10151
751;10152
747;10153
744;10154
740;10155
736;10156
735;10157
734;10158
734;10159
731;10160
726;10161
714;10162
709;10163
704;10164
701;10165
699;10166
698;10167
699;10168
699;10169
700;10170
700;10171
701;10172
702;10173
704;10174
707;10175
710;10176
713;10177
717;10178
719;10179
725;10180
728;10181
731;10182
733;10183
734;10184
735;10185
736;10186
741;10187
743;10188
746;10189
748;10190
751;10191
753;10192
756;10193
758;10194
758;10195
758;10196
758;10197
758;10198
759;10199
759;10200
760;10201
760;10202
761;10203
762;10204
765;10205
766;10206
768;10207
769;10208
770;10209
771;10210
771;10211
770;10212
769;10213
768;10214
767;10215
765;10216
762;10217
760;10218
758;10219
756;10220
755;10221
754;10222
753;10223
752;10224
752;10225
752;10226
752;10227
754;10228
754;10229
755;10230
756;10231
756;10232
756;10233
756;10234
757;10235
757;10236
756;10237
756;10238
756;10239
755;10240
755;10241
754;10242
752;10243
749;10244
748;10245
746;10246
745;10247
744;10248
744;10249
744;10250
744;10251
744;10252
743;10253
741;10254
736;10255
734;10256
729;10257
724;10258
719;10259
715;10260
710;10261
710;10262
710;10263
711;10264
712;10265
715;10266
721;10267
725;10268
729;10269
734;10270
739;10271
743;10272
752;10273
756;10274
759;10275
762;10276
764;10277
766;10278
769;10279
770;10280
771;10281
772;10282
772;10283
772;10284
772;10285
771;10286
771;10287
770;10288
770;10289
769;10290
767;10291
765;10292
763;10293
762;10294
760;10295
759;10296
756;10297
751;10298
748;10299
744;10300
741;10301
739;10302
737;10303
733;10304
733;10305
733;10306
733;10307
734;10308
735;10309
738;10310
740;10311
741;10312
743;10313
744;10314
745;10315
747;10316
748;10317
748;10318
749;10319
749;10320
750;10321
751;10322
752;10323
752;10324
753;10325
753;10326
754;10327
754;10328
753;10329
752;10330
752;10331
750;10332
748;10333
746;10334
743;10335
741;10336
740;10337
737;10338
735;10339
732;10340
725;10341
723;10342
720;10343
719;10344
718;10345
718;10346
719;10347
720;10348
723;10349
725;10350
729;10351
733;10352
736;10353
744;10354
748;10355
751;10356
754;10357
756;10358
758;10359
761;10360
761;10361
762;10362
761;10363
760;10364
759;10365
754;10366
751;10367
749;10368
747;10369
746;10370
745;10371
743;10372
741;10373
737;10374
732;10375
728;10376
725;10377
723;10378
723;10379
724;10380
726;10381
727;10382
729;10383
732;10384
737;10385
740;10386
743;10387
747;10388
751;10389
754;10390
759;10391
761;10392
762;10393
763;10394
763;10395
764;10396
766;10397
767;10398
767;10399
767;10400
766;10401
766;10402
765;10403
765;10404
765;10405
764;10406
764;10407
763;10408
762;10409
761;10410
759;10411
759;10412
758;10413
758;10414
758;10415
757;10416
758;10417
758;10418
759;10419
760;10420
762;10421
765;10422
766;10423
766;10424
767;10425
767;10426
767;10427
766;10428
766;10429
765;10430
763;10431
762;10432
761;10433
756;10434
754;10435
752;10436
749;10437
744;10438
738;10439
725;10440
720;10441
716;10442
713;10443
711;10444
709;10445
710;10446
711;10447
713;10448
715;10449
718;10450
721;10451
723;10452
728;10453
731;10454
734;10455
738;10456
742;10457
746;10458
752;10459
755;10460
758;10461
760;10462
762;10463
764;10464
768;10465
769;10466
771;10467
772;10468
772;10469
772;10470
772;10471
771;10472
771;10473
770;10474
769;10475
768;10476
768;10477
767;10478
766;10479
766;10480
766;10481
766;10482
766;10483
767;10484
767;10485
768;10486
768;10487
769;10488
769;10489
766;10490
763;10491
758;10492
754;10493
748;10494
744;10495
736;10496
735;10497
734;10498
733;10499
734;10500
736;10501
738;10502
743;10503
746;10504
749;10505
752;10506
753;10507
752;10508
750;10509
749;10510
750;10511
751;10512
751;10513
751;10514
752;10515
753;10516
753;10517
753;10518
754;10519
754;10520
754;10521
754;10522
755;10523
755;10524
755;10525
755;10526
751;10527
748;10528
746;10529
744;10530
743;10531
742;10532
739;10533
739;10534
738;10535
737;10536
736;10537
736;10538
737;10539
738;10540
740;10541
742;10542
744;10543
746;10544
749;10545
751;10546
753;10547
755;10548
757;10549
758;10550
759;10551
756;10552
752;10553
749;10554
745;10555
743;10556
740;10557
738;10558
738;10559
737;10560
738;10561
739;10562
740;10563
742;10564
743;10565
744;10566
744;10567
744;10568
744;10569
743;10570
743;10571
743;10572
743;10573
743;10574
744;10575
746;10576
747;10577
747;10578
748;10579
748;10580
748;10581
747;10582
744;10583
743;10584
742;10585
742;10586
742;10587
742;10588
743;10589
744;10590
746;10591
747;10592
750;10593
751;10594
756;10595
758;10596
761;10597
763;10598
765;10599
766;10600
765;10601
763;10602
761;10603
758;10604
755;10605
753;10606
751;10607
748;10608
747;10609
746;10610
746;10611
746;10612
746;10613
747;10614
748;10615
748;10616
748;10617
748;10618
748;10619
749;10620
749;10621
750;10622
751;10623
753;10624
754;10625
756;10626
755;10627
754;10628
752;10629
750;10630
746;10631
738;10632
734;10633
732;10634
731;10635
731;10636
730;10637
731;10638
733;10639
735;10640
738;10641
741;10642
744;10643
746;10644
749;10645
749;10646
750;10647
750;10648
750;10649
750;10650
749;10651
749;10652
749;10653
748;10654
747;10655
746;10656
740;10657
736;10658
733;10659
731;10660
729;10661
727;10662
727;10663
727;10664
727;10665
729;10666
730;10667
732;10668
734;10669
739;10670
741;10671
743;10672
744;10673
744;10674
744;10675
745;10676
744;10677
745;10678
745;10679
743;10680
742;10681
740;10682
739;10683
739;10684
738;10685
737;10686
737;10687
736;10688
735;10689
735;10690
735;10691
735;10692
736;10693
739;10694
740;10695
742;10696
744;10697
746;10698
748;10699
751;10700
755;10701
757;10702
759;10703
760;10704
762;10705
764;10706
766;10707
766;10708
766;10709
765;10710
765;10711
764;10712
764;10713
764;10714
764;10715
764;10716
763;10717
763;10718
762;10719
762;10720
762;10721
762;10722
763;10723
764;10724
765;10725
768;10726
769;10727
769;10728
768;10729
767;10730
764;10731
760;10732
758;10733
757;10734
756;10735
754;10736
753;10737
751;10738
749;10739
749;10740
749;10741
749;10742
749;10743
749;10744
749;10745
749;10746
749;10747
750;10748
750;10749
751;10750
751;10751
752;10752
752;10753
753;10754
754;10755
755;10756
756;10757
757;10758
758;10759
760;10760
760;10761
760;10762
755;10763
753;10764
750;10765
745;10766
738;10767
731;10768
720;10769
715;10770
712;10771
709;10772
706;10773
703;10774
697;10775
695;10776
694;10777
694;10778
695;10779
698;10780
703;10781
706;10782
710;10783
714;10784
718;10785
722;10786
729;10787
733;10788
738;10789
743;10790
748;10791
751;10792
755;10793
761;10794
763;10795
765;10796
766;10797
767;10798
768;10799
771;10800
772;10801
773;10802
774;10803
775;10804
776;10805
776;10806
775;10807
772;10808
767;10809
762;10810
756;10811
747;10812
742;10813
737;10814
732;10815
728;10816
725;10817
723;10818
721;10819
722;10820
723;10821
725;10822
727;10823
730;10824
736;10825
739;10826
743;10827
746;10828
749;10829
752;10830
757;10831
759;10832
761;10833
762;10834
761;10835
760;10836
757;10837
756;10838
755;10839
754;10840
754;10841
753;10842
753;10843
754;10844
754;10845
755;10846
756;10847
757;10848
758;10849
761;10850
762;10851
764;10852
765;10853
766;10854
766;10855
767;10856
768;10857
768;10858
769;10859
768;10860
768;10861
764;10862
761;10863
757;10864
754;10865
752;10866
749;10867
746;10868
744;10869
743;10870
741;10871
741;10872
740;10873
741;10874
741;10875
742;10876
742;10877
743;10878
743;10879
742;10880
734;10881
727;10882
721;10883
716;10884
712;10885
710;10886
708;10887
709;10888
710;10889
712;10890
714;10891
716;10892
722;10893
725;10894
727;10895
730;10896
732;10897
734;10898
734;10899
731;10900
729;10901
728;10902
726;10903
727;10904
728;10905
732;10906
733;10907
736;10908
737;10909
739;10910
740;10911
744;10912
746;10913
748;10914
750;10915
752;10916
753;10917
753;10918
752;10919
751;10920
750;10921
749;10922
749;10923
750;10924
751;10925
752;10926
753;10927
754;10928
755;10929
757;10930
759;10931
760;10932
761;10933
762;10934
763;10935
764;10936
764;10937
764;10938
764;10939
764;10940
764;10941
765;10942
765;10943
766;10944
767;10945
768;10946
768;10947
768;10948
770;10949
770;10950
770;10951
770;10952
770;10953
769;10954
767;10955
766;10956
765;10957
764;10958
763;10959
762;10960
761;10961
759;10962
755;10963
750;10964
745;10965
740;10966
736;10967
729;10968
726;10969
724;10970
722;10971
722;10972
721;10973
716;10974
713;10975
710;10976
706;10977
704;10978
702;10979
700;10980
700;10981
701;10982
702;10983
705;10984
708;10985
718;10986
722;10987
726;10988
731;10989
735;10990
740;10991
747;10992
751;10993
755;10994
758;10995
760;10996
762;10997
765;10998
766;10999
766;11000
766;11001
764;11002
759;11003
753;11004
742;11005
738;11006
735;11007
732;11008
729;11009
727;11010
725;11011
724;11012
724;11013
725;11014
726;11015
729;11016
735;11017
738;11018
741;11019
744;11020
747;11021
749;11022
754;11023
756;11024
759;11025
762;11026
764;11027
766;11028
768;11029
772;11030
773;11031
775;11032
776;11033
777;11034
777;11035
777;11036
777;11037
776;11038
775;11039
774;11040
774;11041
771;11042
770;11043
767;11044
764;11045
760;11046
757;11047
752;11048
750;11049
746;11050
742;11051
737;11052
731;11053
722;11054
719;11055
717;11056
715;11057
714;11058
714;11059
716;11060
717;11061
718;11062
719;11063
720;11064
721;11065
723;11066
725;11067
726;11068
727;11069
728;11070
729;11071
730;11072
733;11073
733;11074
735;11075
737;11076
738;11077
739;11078
738;11079
735;11080
730;11081
725;11082
720;11083
718;11084
715;11085
715;11086
715;11087
716;11088
717;11089
718;11090
722;11091
724;11092
726;11093
729;11094
732;11095
735;11096
739;11097
745;11098
748;11099
750;11100
753;11101
756;11102
759;11103
764;11104
767;11105
769;11106
770;11107
771;11108
772;11109
772;11110
773;11111
774;11112
774;11113
774;11114
775;11115
775;11116
774;11117
773;11118
771;11119
769;11120
765;11121
759;11122
756;11123
752;11124
748;11125
743;11126
739;11127
731;11128
727;11129
724;11130
722;11131
722;11132
721;11133
721;11134
723;11135
725;11136
727;11137
729;11138
731;11139
733;11140
740;11141
743;11142
745;11143
748;11144
751;11145
754;11146
758;11147
760;11148
761;11149
762;11150
763;11151
764;11152
763;11153
761;11154
758;11155
755;11156
752;11157
750;11158
745;11159
743;11160
741;11161
740;11162
739;11163
739;11164
737;11165
737;11166
737;11167
737;11168
738;11169
739;11170
741;11171
744;11172
746;11173
749;11174
751;11175
753;11176
756;11177
760;11178
761;11179
763;11180
764;11181
765;11182
766;11183
768;11184
768;11185
768;11186
768;11187
768;11188
768;11189
769;11190
770;11191
770;11192
770;11193
770;11194
771;11195
771;11196
770;11197
770;11198
769;11199
768;11200
768;11201
766;11202
763;11203
761;11204
759;11205
756;11206
754;11207
752;11208
744;11209
737;11210
729;11211
721;11212
716;11213
711;11214
705;11215
704;11216
703;11217
702;11218
702;11219
702;11220
704;11221
706;11222
709;11223
713;11224
717;11225
720;11226
728;11227
731;11228
735;11229
738;11230
740;11231
743;11232
745;11233
746;11234
747;11235
747;11236
747;11237
746;11238
745;11239
743;11240
742;11241
740;11242
738;11243
737;11244
737;11245
736;11246
736;11247
737;11248
738;11249
739;11250
741;11251
745;11252
748;11253
750;11254
752;11255
754;11256
757;11257
762;11258
764;11259
766;11260
768;11261
770;11262
771;11263
772;11264
771;11265
772;11266
772;11267
772;11268
772;11269
772;11270
772;11271
771;11272
770;11273
769;11274
767;11275
766;11276
762;11277
760;11278
758;11279
756;11280
755;11281
753;11282
752;11283
752;11284
752;11285
751;11286
750;11287
749;11288
750;11289
750;11290
752;11291
753;11292
755;11293
755;11294
756;11295
758;11296
757;11297
754;11298
751;11299
748;11300
746;11301
743;11302
742;11303
741;11304
741;11305
741;11306
741;11307
741;11308
742;11309
742;11310
741;11311
741;11312
741;11313
743;11314
745;11315
746;11316
745;11317
742;11318
737;11319
727;11320
723;11321
719;11322
717;11323
716;11324
716;11325
715;11326
715;11327
716;11328
717;11329
718;11330
719;11331
720;11332
723;11333
725;11334
728;11335
730;11336
732;11337
735;11338
738;11339
739;11340
740;11341
740;11342
741;11343
742;11344
746;11345
748;11346
750;11347
752;11348
754;11349
757;11350
761;11351
763;11352
764;11353
766;11354
768;11355
771;11356
773;11357
774;11358
775;11359
776;11360
777;11361
777;11362
778;11363
779;11364
780;11365
780;11366
780;11367
780;11368
778;11369
774;11370
771;11371
769;11372
767;11373
765;11374
764;11375
759;11376
758;11377
756;11378
754;11379
753;11380
752;11381
750;11382
750;11383
750;11384
751;11385
752;11386
753;11387
756;11388
757;11389
759;11390
761;11391
763;11392
765;11393
765;11394
767;11395
767;11396
767;11397
767;11398
767;11399
767;11400
767;11401
766;11402
766;11403
765;11404
763;11405
760;11406
753;11407
751;11408
749;11409
747;11410
747;11411
746;11412
745;11413
743;11414
739;11415
735;11416
732;11417
730;11418
729;11419
729;11420
730;11421
730;11422
730;11423
730;11424
731;11425
733;11426
733;11427
735;11428
736;11429
738;11430
740;11431
744;11432
747;11433
748;11434
750;11435
752;11436
753;11437
755;11438
756;11439
755;11440
752;11441
749;11442
746;11443
739;11444
736;11445
734;11446
732;11447
729;11448
727;11449
723;11450
721;11451
721;11452
720;11453
720;11454
721;11455
722;11456
724;11457
725;11458
728;11459
730;11460
733;11461
737;11462
742;11463
744;11464
746;11465
748;11466
749;11467
750;11468
752;11469
754;11470
755;11471
756;11472
757;11473
757;11474
757;11475
755;11476
752;11477
748;11478
746;11479
743;11480
742;11481
741;11482
742;11483
742;11484
744;11485
745;11486
748;11487
752;11488
753;11489
754;11490
755;11491
756;11492
757;11493
759;11494
760;11495
760;11496
761;11497
761;11498
761;11499
762;11500
762;11501
761;11502
761;11503
760;11504
760;11505
753;11506
749;11507
746;11508
744;11509
742;11510
742;11511
741;11512
742;11513
743;11514
744;11515
745;11516
746;11517
747;11518
748;11519
748;11520
748;11521
748;11522
748;11523
747;11524
746;11525
744;11526
744;11527
744;11528
744;11529
745;11530
746;11531
746;11532
745;11533
744;11534
741;11535
739;11536
735;11537
732;11538
730;11539
728;11540
725;11541
723;11542
721;11543
721;11544
721;11545
722;11546
723;11547
725;11548
727;11549
732;11550
735;11551
737;11552
741;11553
744;11554
747;11555
753;11556
754;11557
755;11558
755;11559
754;11560
755;11561
756;11562
757;11563
758;11564
759;11565
760;11566
761;11567
762;11568
763;11569
764;11570
766;11571
767;11572
766;11573
764;11574
759;11575
756;11576
755;11577
754;11578
754;11579
753;11580
755;11581
756;11582
757;11583
759;11584
760;11585
762;11586
765;11587
766;11588
768;11589
769;11590
770;11591
771;11592
769;11593
768;11594
765;11595
763;11596
761;11597
758;11598
755;11599
753;11600
752;11601
751;11602
751;11603
751;11604
752;11605
753;11606
755;11607
756;11608
757;11609
758;11610
760;11611
761;11612
763;11613
763;11614
764;11615
764;11616
765;11617
763;11618
760;11619
755;11620
749;11621
740;11622
728;11623
708;11624
700;11625
695;11626
693;11627
691;11628
691;11629
694;11630
697;11631
701;11632
705;11633
711;11634
716;11635
721;11636
729;11637
731;11638
733;11639
735;11640
737;11641
738;11642
740;11643
742;11644
744;11645
745;11646
746;11647
745;11648
744;11649
744;11650
745;11651
746;11652
747;11653
749;11654
753;11655
755;11656
756;11657
758;11658
759;11659
760;11660
762;11661
762;11662
761;11663
760;11664
757;11665
755;11666
752;11667
748;11668
746;11669
745;11670
745;11671
745;11672
745;11673
748;11674
749;11675
751;11676
753;11677
755;11678
757;11679
762;11680
764;11681
767;11682
769;11683
770;11684
773;11685
776;11686
777;11687
778;11688
779;11689
780;11690
780;11691
780;11692
780;11693
779;11694
778;11695
777;11696
776;11697
775;11698
772;11699
770;11700
768;11701
766;11702
765;11703
764;11704
759;11705
756;11706
754;11707
751;11708
748;11709
744;11710
734;11711
729;11712
725;11713
722;11714
720;11715
718;11716
716;11717
714;11718
711;11719
708;11720
707;11721
708;11722
710;11723
716;11724
719;11725
723;11726
728;11727
732;11728
737;11729
746;11730
749;11731
753;11732
755;11733
756;11734
756;11735
751;11736
749;11737
745;11738
742;11739
741;11740
739;11741
737;11742
736;11743
735;11744
735;11745
735;11746
735;11747
735;11748
736;11749
738;11750
739;11751
741;11752
744;11753
747;11754
753;11755
756;11756
759;11757
762;11758
765;11759
767;11760
773;11761
776;11762
778;11763
781;11764
782;11765
784;11766
786;11767
787;11768
788;11769
787;11770
788;11771
788;11772
786;11773
785;11774
783;11775
780;11776
777;11777
775;11778
771;11779
768;11780
767;11781
765;11782
764;11783
764;11784
764;11785
764;11786
764;11787
764;11788
763;11789
761;11790
758;11791
751;11792
747;11793
743;11794
739;11795
736;11796
733;11797
727;11798
723;11799
719;11800
716;11801
713;11802
712;11803
712;11804
714;11805
716;11806
718;11807
721;11808
724;11809
727;11810
734;11811
737;11812
741;11813
743;11814
746;11815
749;11816
753;11817
755;11818
756;11819
757;11820
757;11821
756;11822
755;11823
754;11824
755;11825
755;11826
756;11827
758;11828
756;11829
754;11830
752;11831
751;11832
750;11833
751;11834
754;11835
756;11836
758;11837
760;11838
763;11839
765;11840
767;11841
772;11842
774;11843
776;11844
777;11845
779;11846
780;11847
780;11848
779;11849
777;11850
776;11851
775;11852
774;11853
771;11854
769;11855
766;11856
763;11857
760;11858
757;11859
750;11860
746;11861
742;11862
739;11863
736;11864
733;11865
729;11866
728;11867
727;11868
725;11869
724;11870
723;11871
721;11872
721;11873
721;11874
722;11875
724;11876
726;11877
728;11878
735;11879
739;11880
741;11881
744;11882
746;11883
749;11884
753;11885
756;11886
758;11887
760;11888
762;11889
763;11890
764;11891
764;11892
764;11893
763;11894
762;11895
762;11896
762;11897
763;11898
764;11899
764;11900
764;11901
764;11902
763;11903
762;11904
759;11905
756;11906
752;11907
749;11908
745;11909
738;11910
733;11911
728;11912
724;11913
720;11914
718;11915
717;11916
718;11917
720;11918
722;11919
725;11920
728;11921
731;11922
738;11923
741;11924
745;11925
749;11926
752;11927
756;11928
762;11929
764;11930
765;11931
766;11932
766;11933
766;11934
766;11935
765;11936
765;11937
764;11938
762;11939
762;11940
761;11941
761;11942
762;11943
762;11944
764;11945
764;11946
764;11947
763;11948
762;11949
761;11950
760;11951
759;11952
757;11953
753;11954
750;11955
747;11956
744;11957
741;11958
738;11959
736;11960
735;11961
736;11962
737;11963
738;11964
739;11965
744;11966
746;11967
749;11968
752;11969
755;11970
758;11971
761;11972
767;11973
770;11974
772;11975
773;11976
775;11977
776;11978
779;11979
779;11980
779;11981
777;11982
774;11983
769;11984
754;11985
745;11986
737;11987
729;11988
722;11989
716;11990
707;11991
704;11992
701;11993
700;11994
700;11995
701;11996
707;11997
711;11998
715;11999
720;12000
725;12001
729;12002
738;12003
743;12004
747;12005
751;12006
755;12007
759;12008
762;12009
767;12010
768;12011
765;12012
760;12013
754;12014
748;12015
737;12016
734;12017
731;12018
730;12019
728;12020
728;12021
728;12022
729;12023
731;12024
733;12025
735;12026
737;12027
741;12028
743;12029
746;12030
749;12031
750;12032
753;12033
757;12034
758;12035
761;12036
762;12037
764;12038
766;12039
768;12040
771;12041
773;12042
772;12043
772;12044
772;12045
772;12046
771;12047
770;12048
770;12049
770;12050
770;12051
771;12052
771;12053
771;12054
770;12055
770;12056
770;12057
770;12058
770;12059
770;12060
770;12061
770;12062
770;12063
770;12064
768;12065
767;12066
766;12067
765;12068
764;12069
763;12070
761;12071
761;12072
761;12073
761;12074
761;12075
762;12076
762;12077
764;12078
765;12079
764;12080
761;12081
760;12082
759;12083
759;12084
760;12085
760;12086
761;12087
761;12088
760;12089
756;12090
753;12091
749;12092
745;12093
741;12094
738;12095
732;12096
730;12097
729;12098
728;12099
727;12100
726;12101
725;12102
718;12103
712;12104
708;12105
704;12106
702;12107
701;12108
702;12109
703;12110
705;12111
707;12112
710;12113
713;12114
715;12115
716;12116
718;12117
719;12118
721;12119
724;12120
728;12121
729;12122
732;12123
734;12124
737;12125
740;12126
745;12127
753;12128
756;12129
760;12130
763;12131
766;12132
769;12133
773;12134
774;12135
775;12136
776;12137
776;12138
776;12139
774;12140
773;12141
772;12142
771;12143
769;12144
768;12145
766;12146
764;12147
763;12148
761;12149
760;12150
759;12151
754;12152
751;12153
749;12154
748;12155
747;12156
746;12157
746;12158
747;12159
748;12160
750;12161
752;12162
753;12163
754;12164
755;12165
755;12166
753;12167
752;12168
750;12169
747;12170
740;12171
738;12172
736;12173
734;12174
734;12175
734;12176
734;12177
736;12178
738;12179
739;12180
742;12181
744;12182
746;12183
751;12184
754;12185
756;12186
758;12187
760;12188
763;12189
766;12190
768;12191
769;12192
770;12193
771;12194
771;12195
770;12196
769;12197
768;12198
767;12199
765;12200
761;12201
751;12202
747;12203
743;12204
740;12205
737;12206
735;12207
732;12208
731;12209
730;12210
729;12211
729;12212
730;12213
731;12214
735;12215
737;12216
737;12217
737;12218
737;12219
737;12220
735;12221
733;12222
732;12223
732;12224
732;12225
733;12226
738;12227
740;12228
743;12229
746;12230
748;12231
751;12232
755;12233
756;12234
755;12235
752;12236
749;12237
747;12238
739;12239
735;12240
731;12241
728;12242
725;12243
723;12244
722;12245
721;12246
723;12247
724;12248
727;12249
730;12250
733;12251
741;12252
745;12253
749;12254
752;12255
756;12256
759;12257
765;12258
767;12259
769;12260
771;12261
772;12262
773;12263
773;12264
770;12265
767;12266
765;12267
762;12268
760;12269
759;12270
758;12271
758;12272
758;12273
759;12274
759;12275
761;12276
762;12277
763;12278
764;12279
765;12280
766;12281
765;12282
758;12283
755;12284
751;12285
749;12286
747;12287
747;12288
747;12289
748;12290
750;12291
752;12292
754;12293
757;12294
763;12295
765;12296
768;12297
768;12298
767;12299
765;12300
763;12301
759;12302
757;12303
755;12304
755;12305
754;12306
754;12307
754;12308
755;12309
755;12310
756;12311
756;12312
757;12313
759;12314
760;12315
761;12316
762;12317
763;12318
765;12319
766;12320
768;12321
769;12322
770;12323
771;12324
771;12325
769;12326
763;12327
759;12328
755;12329
750;12330
746;12331
741;12332
732;12333
729;12334
725;12335
723;12336
720;12337
719;12338
717;12339
718;12340
718;12341
719;12342
719;12343
719;12344
718;12345
718;12346
717;12347
717;12348
717;12349
719;12350
720;12351
724;12352
726;12353
728;12354
731;12355
734;12356
737;12357
743;12358
747;12359
750;12360
754;12361
757;12362
760;12363
765;12364
767;12365
769;12366
771;12367
772;12368
774;12369
776;12370
777;12371
778;12372
779;12373
779;12374
778;12375
776;12376
776;12377
776;12378
775;12379
775;12380
776;12381
776;12382
777;12383
777;12384
775;12385
773;12386
771;12387
768;12388
763;12389
760;12390
755;12391
748;12392
740;12393
733;12394
718;12395
712;12396
707;12397
702;12398
698;12399
696;12400
694;12401
694;12402
695;12403
697;12404
700;12405
704;12406
709;12407
718;12408
723;12409
728;12410
733;12411
737;12412
741;12413
749;12414
754;12415
757;12416
760;12417
763;12418
766;12419
772;12420
774;12421
777;12422
778;12423
778;12424
777;12425
769;12426
765;12427
761;12428
758;12429
754;12430
752;12431
748;12432
746;12433
745;12434
744;12435
741;12436
739;12437
736;12438
735;12439
735;12440
735;12441
735;12442
735;12443
736;12444
735;12445
733;12446
730;12447
728;12448
726;12449
725;12450
725;12451
726;12452
728;12453
731;12454
733;12455
736;12456
744;12457
748;12458
752;12459
756;12460
760;12461
764;12462
772;12463
776;12464
779;12465
779;12466
776;12467
771;12468
761;12469
757;12470
754;12471
752;12472
750;12473
748;12474
746;12475
746;12476
746;12477
747;12478
748;12479
750;12480
752;12481
756;12482
758;12483
760;12484
762;12485
763;12486
764;12487
763;12488
764;12489
764;12490
765;12491
766;12492
767;12493
770;12494
771;12495
772;12496
772;12497
771;12498
770;12499
768;12500
766;12501
763;12502
760;12503
757;12504
753;12505
745;12506
741;12507
737;12508
734;12509
731;12510
727;12511
722;12512
715;12513
713;12514
712;12515
712;12516
713;12517
715;12518
720;12519
722;12520
726;12521
730;12522
734;12523
738;12524
747;12525
751;12526
755;12527
758;12528
762;12529
765;12530
771;12531
773;12532
775;12533
776;12534
777;12535
777;12536
778;12537
777;12538
776;12539
774;12540
771;12541
769;12542
765;12543
762;12544
760;12545
758;12546
756;12547
753;12548
750;12549
747;12550
745;12551
743;12552
741;12553
740;12554
740;12555
738;12556
738;12557
737;12558
736;12559
735;12560
735;12561
733;12562
731;12563
730;12564
730;12565
731;12566
733;12567
738;12568
739;12569
742;12570
743;12571
746;12572
749;12573
756;12574
759;12575
763;12576
767;12577
770;12578
772;12579
773;12580
774;12581
774;12582
773;12583
771;12584
770;12585
768;12586
764;12587
762;12588
759;12589
756;12590
752;12591
747;12592
737;12593
732;12594
729;12595
726;12596
724;12597
723;12598
721;12599
721;12600
721;12601
721;12602
722;12603
724;12604
728;12605
731;12606
735;12607
738;12608
741;12609
744;12610
750;12611
752;12612
754;12613
755;12614
756;12615
756;12616
755;12617
751;12618
749;12619
747;12620
745;12621
744;12622
742;12623
742;12624
743;12625
744;12626
745;12627
748;12628
751;12629
756;12630
759;12631
761;12632
763;12633
764;12634
765;12635
763;12636
760;12637
755;12638
749;12639
744;12640
740;12641
730;12642
722;12643
714;12644
706;12645
699;12646
695;12647
693;12648
693;12649
693;12650
695;12651
698;12652
700;12653
704;12654
714;12655
719;12656
726;12657
731;12658
737;12659
742;12660
751;12661
755;12662
759;12663
763;12664
767;12665
771;12666
777;12667
779;12668
780;12669
780;12670
779;12671
779;12672
778;12673
777;12674
776;12675
774;12676
772;12677
769;12678
767;12679
761;12680
758;12681
755;12682
754;12683
752;12684
750;12685
748;12686
747;12687
747;12688
747;12689
748;12690
749;12691
753;12692
755;12693
758;12694
760;12695
763;12696
766;12697
770;12698
771;12699
773;12700
775;12701
776;12702
777;12703
778;12704
777;12705
776;12706
773;12707
769;12708
766;12709
763;12710
757;12711
755;12712
753;12713
751;12714
751;12715
750;12716
751;12717
752;12718
753;12719
754;12720
754;12721
754;12722
751;12723
747;12724
743;12725
739;12726
735;12727
732;12728
728;12729
727;12730
726;12731
728;12732
730;12733
731;12734
736;12735
739;12736
743;12737
747;12738
750;12739
754;12740
758;12741
758;12742
759;12743
758;12744
756;12745
754;12746
751;12747
746;12748
744;12749
741;12750
739;12751
738;12752
736;12753
736;12754
737;12755
738;12756
739;12757
740;12758
742;12759
745;12760
747;12761
749;12762
750;12763
753;12764
755;12765
758;12766
761;12767
763;12768
765;12769
767;12770
768;12771
770;12772
771;12773
771;12774
769;12775
767;12776
764;12777
761;12778
755;12779
751;12780
747;12781
743;12782
740;12783
738;12784
734;12785
734;12786
733;12787
734;12788
734;12789
736;12790
741;12791
744;12792
747;12793
751;12794
755;12795
759;12796
766;12797
769;12798
772;12799
774;12800
775;12801
776;12802
774;12803
767;12804
764;12805
762;12806
760;12807
759;12808
758;12809
756;12810
756;12811
755;12812
754;12813
753;12814
752;12815
752;12816
751;12817
752;12818
753;12819
754;12820
755;12821
758;12822
760;12823
762;12824
764;12825
764;12826
764;12827
759;12828
754;12829
748;12830
742;12831
737;12832
732;12833
727;12834
717;12835
713;12836
710;12837
709;12838
708;12839
709;12840
713;12841
716;12842
720;12843
724;12844
728;12845
733;12846
741;12847
744;12848
747;12849
750;12850
754;12851
757;12852
760;12853
760;12854
759;12855
759;12856
758;12857
758;12858
758;12859
758;12860
758;12861
758;12862
758;12863
759;12864
761;12865
765;12866
767;12867
769;12868
771;12869
773;12870
774;12871
773;12872
769;12873
766;12874
762;12875
758;12876
756;12877
752;12878
752;12879
751;12880
750;12881
751;12882
752;12883
755;12884
755;12885
757;12886
758;12887
759;12888
761;12889
760;12890
759;12891
758;12892
756;12893
753;12894
749;12895
738;12896
733;12897
726;12898
719;12899
713;12900
708;12901
702;12902
700;12903
699;12904
698;12905
697;12906
697;12907
698;12908
701;12909
703;12910
706;12911
710;12912
714;12913
719;12914
730;12915
735;12916
740;12917
745;12918
749;12919
754;12920
764;12921
768;12922
773;12923
776;12924
780;12925
782;12926
786;12927
786;12928
787;12929
787;12930
787;12931
787;12932
786;12933
785;12934
781;12935
778;12936
774;12937
769;12938
763;12939
754;12940
751;12941
748;12942
746;12943
744;12944
743;12945
743;12946
744;12947
746;12948
748;12949
750;12950
753;12951
759;12952
761;12953
765;12954
766;12955
768;12956
768;12957
768;12958
768;12959
768;12960
767;12961
765;12962
763;12963
761;12964
756;12965
754;12966
752;12967
750;12968
748;12969
746;12970
742;12971
740;12972
739;12973
738;12974
737;12975
736;12976
736;12977
735;12978
734;12979
732;12980
730;12981
728;12982
720;12983
715;12984
710;12985
707;12986
706;12987
705;12988
708;12989
710;12990
713;12991
716;12992
719;12993
723;12994
727;12995
736;12996
741;12997
745;12998
748;12999
751;13000
753;13001
756;13002
758;13003
760;13004
762;13005
764;13006
766;13007
770;13008
771;13009
773;13010
774;13011
775;13012
775;13013
775;13014
775;13015
774;13016
774;13017
773;13018
773;13019
773;13020
773;13021
774;13022
774;13023
773;13024
773;13025
771;13026
768;13027
766;13028
764;13029
764;13030
763;13031
763;13032
764;13033
765;13034
765;13035
766;13036
768;13037
769;13038
773;13039
775;13040
776;13041
777;13042
778;13043
779;13044
782;13045
782;13046
782;13047
780;13048
776;13049
773;13050
765;13051
762;13052
759;13053
757;13054
755;13055
753;13056
752;13057
750;13058
747;13059
743;13060
739;13061
735;13062
727;13063
724;13064
722;13065
720;13066
719;13067
717;13068
716;13069
713;13070
711;13071
710;13072
710;13073
710;13074
710;13075
712;13076
712;13077
713;13078
715;13079
717;13080
720;13081
726;13082
729;13083
733;13084
737;13085
741;13086
744;13087
746;13088
746;13089
748;13090
750;13091
751;13092
752;13093
752;13094
751;13095
751;13096
751;13097
751;13098
752;13099
753;13100
757;13101
759;13102
761;13103
763;13104
765;13105
767;13106
767;13107
767;13108
767;13109
