emg;t
745;0
746;1
746;2
746;3
746;4
746;5
746;6
746;7
746;8
746;9
746;10
746;11
746;12
746;13
746;14
746;15
746;16
746;17
746;18
746;19
746;20
746;21
746;22
746;23
746;24
746;25
746;26
746;27
746;28
746;29
746;30
745;31
746;32
745;33
745;34
745;35
745;36
746;37
746;38
745;39
746;40
746;41
746;42
745;43
746;44
745;45
746;46
746;47
746;48
746;49
746;50
746;51
746;52
746;53
745;54
746;55
746;56
746;57
746;58
746;59
746;60
746;61
746;62
746;63
746;64
746;65
746;66
746;67
746;68
746;69
746;70
746;71
746;72
746;73
746;74
746;75
746;76
746;77
746;78
746;79
746;80
746;81
746;82
746;83
746;84
746;85
746;86
746;87
746;88
746;89
746;90
746;91
746;92
746;93
746;94
746;95
746;96
746;97
745;98
746;99
746;100
746;101
745;102
746;103
745;104
746;105
746;106
746;107
746;108
746;109
746;110
746;111
745;112
746;113
746;114
746;115
746;116
746;117
746;118
746;119
746;120
746;121
746;122
746;123
746;124
746;125
746;126
746;127
746;128
746;129
746;130
746;131
746;132
746;133
746;134
746;135
746;136
746;137
746;138
746;139
746;140
746;141
746;142
746;143
746;144
746;145
746;146
746;147
746;148
746;149
746;150
746;151
746;152
746;153
746;154
746;155
746;156
746;157
746;158
746;159
746;160
746;161
746;162
746;163
746;164
746;165
746;166
746;167
746;168
746;169
746;170
746;171
746;172
746;173
746;174
746;175
746;176
746;177
746;178
746;179
746;180
746;181
746;182
746;183
746;184
746;185
746;186
746;187
746;188
746;189
746;190
746;191
746;192
746;193
746;194
746;195
746;196
746;197
746;198
746;199
746;200
746;201
746;202
746;203
746;204
745;205
746;206
746;207
746;208
746;209
746;210
746;211
746;212
746;213
746;214
746;215
746;216
746;217
745;218
746;219
746;220
746;221
746;222
746;223
746;224
746;225
746;226
746;227
746;228
746;229
746;230
746;231
746;232
746;233
746;234
746;235
746;236
746;237
746;238
746;239
746;240
746;241
746;242
746;243
746;244
746;245
746;246
746;247
746;248
746;249
746;250
746;251
746;252
746;253
746;254
746;255
746;256
746;257
746;258
746;259
746;260
746;261
746;262
746;263
746;264
746;265
746;266
746;267
745;268
746;269
746;270
745;271
746;272
746;273
746;274
746;275
746;276
746;277
746;278
746;279
746;280
745;281
745;282
746;283
746;284
746;285
746;286
745;287
746;288
746;289
746;290
746;291
746;292
746;293
746;294
746;295
746;296
746;297
746;298
745;299
746;300
746;301
746;302
746;303
746;304
746;305
746;306
746;307
746;308
746;309
746;310
746;311
746;312
746;313
746;314
746;315
746;316
746;317
746;318
745;319
746;320
745;321
746;322
746;323
746;324
746;325
746;326
746;327
746;328
746;329
746;330
746;331
746;332
746;333
746;334
746;335
746;336
746;337
746;338
746;339
746;340
746;341
746;342
746;343
746;344
746;345
746;346
746;347
746;348
746;349
746;350
746;351
746;352
746;353
746;354
746;355
746;356
746;357
746;358
746;359
746;360
746;361
746;362
746;363
746;364
746;365
746;366
746;367
746;368
746;369
746;370
746;371
746;372
746;373
746;374
746;375
746;376
746;377
746;378
746;379
746;380
746;381
746;382
746;383
746;384
746;385
746;386
746;387
746;388
746;389
746;390
746;391
746;392
746;393
746;394
746;395
746;396
746;397
746;398
746;399
746;400
746;401
746;402
746;403
746;404
746;405
746;406
746;407
746;408
746;409
746;410
746;411
746;412
746;413
746;414
746;415
746;416
746;417
746;418
746;419
746;420
746;421
746;422
746;423
746;424
746;425
746;426
746;427
746;428
746;429
746;430
746;431
746;432
746;433
746;434
746;435
746;436
746;437
746;438
746;439
746;440
746;441
746;442
746;443
746;444
746;445
746;446
746;447
746;448
746;449
746;450
747;451
746;452
747;453
747;454
747;455
747;456
747;457
747;458
747;459
747;460
747;461
747;462
747;463
747;464
747;465
747;466
747;467
747;468
747;469
747;470
747;471
747;472
747;473
747;474
747;475
747;476
747;477
747;478
747;479
747;480
747;481
747;482
746;483
747;484
747;485
747;486
746;487
747;488
747;489
747;490
747;491
746;492
747;493
746;494
747;495
747;496
746;497
747;498
747;499
746;500
747;501
747;502
747;503
747;504
747;505
747;506
747;507
746;508
747;509
747;510
746;511
747;512
747;513
747;514
747;515
747;516
747;517
747;518
747;519
747;520
747;521
747;522
747;523
747;524
747;525
747;526
747;527
747;528
747;529
747;530
747;531
747;532
747;533
747;534
747;535
747;536
747;537
747;538
747;539
747;540
747;541
747;542
747;543
747;544
747;545
747;546
747;547
747;548
747;549
747;550
747;551
747;552
747;553
747;554
747;555
747;556
747;557
747;558
747;559
747;560
747;561
747;562
747;563
747;564
747;565
747;566
747;567
747;568
747;569
747;570
747;571
747;572
747;573
747;574
747;575
747;576
747;577
747;578
747;579
747;580
747;581
747;582
747;583
747;584
747;585
747;586
747;587
747;588
747;589
747;590
747;591
747;592
747;593
747;594
747;595
747;596
747;597
747;598
747;599
747;600
747;601
747;602
747;603
747;604
747;605
747;606
746;607
747;608
747;609
747;610
747;611
747;612
747;613
747;614
747;615
747;616
747;617
747;618
747;619
747;620
747;621
747;622
747;623
747;624
747;625
746;626
747;627
747;628
747;629
747;630
747;631
747;632
747;633
747;634
747;635
747;636
747;637
747;638
747;639
747;640
747;641
747;642
747;643
747;644
747;645
747;646
747;647
747;648
747;649
747;650
747;651
747;652
747;653
747;654
746;655
747;656
747;657
747;658
747;659
747;660
747;661
747;662
747;663
747;664
747;665
746;666
747;667
747;668
747;669
747;670
747;671
747;672
747;673
746;674
746;675
747;676
747;677
746;678
747;679
747;680
747;681
747;682
747;683
747;684
747;685
747;686
747;687
747;688
747;689
747;690
747;691
747;692
747;693
747;694
747;695
747;696
747;697
747;698
747;699
747;700
747;701
747;702
747;703
747;704
747;705
747;706
747;707
747;708
747;709
747;710
747;711
747;712
747;713
747;714
747;715
747;716
747;717
747;718
747;719
747;720
747;721
747;722
747;723
747;724
747;725
747;726
747;727
747;728
747;729
747;730
747;731
747;732
747;733
747;734
747;735
747;736
747;737
747;738
747;739
747;740
747;741
747;742
747;743
747;744
747;745
747;746
747;747
747;748
747;749
747;750
747;751
747;752
747;753
747;754
747;755
747;756
747;757
747;758
747;759
747;760
747;761
747;762
747;763
747;764
747;765
747;766
747;767
747;768
747;769
747;770
747;771
747;772
747;773
747;774
747;775
747;776
747;777
747;778
747;779
747;780
747;781
747;782
747;783
747;784
747;785
747;786
747;787
747;788
747;789
747;790
747;791
747;792
747;793
747;794
747;795
747;796
747;797
747;798
747;799
747;800
747;801
747;802
747;803
747;804
747;805
747;806
747;807
747;808
747;809
747;810
747;811
747;812
747;813
747;814
747;815
747;816
747;817
747;818
747;819
747;820
747;821
747;822
747;823
747;824
747;825
747;826
747;827
747;828
747;829
747;830
747;831
747;832
747;833
747;834
747;835
747;836
747;837
747;838
747;839
747;840
747;841
747;842
747;843
747;844
747;845
747;846
747;847
747;848
747;849
747;850
747;851
747;852
747;853
747;854
747;855
747;856
747;857
747;858
747;859
747;860
747;861
747;862
747;863
747;864
747;865
747;866
747;867
747;868
747;869
747;870
747;871
747;872
747;873
747;874
747;875
747;876
747;877
747;878
747;879
747;880
747;881
747;882
747;883
747;884
747;885
747;886
747;887
747;888
747;889
747;890
747;891
747;892
747;893
747;894
747;895
747;896
747;897
746;898
747;899
747;900
747;901
747;902
747;903
747;904
747;905
747;906
747;907
747;908
747;909
747;910
747;911
747;912
747;913
747;914
747;915
747;916
747;917
747;918
747;919
747;920
747;921
747;922
747;923
747;924
747;925
747;926
747;927
747;928
747;929
747;930
747;931
747;932
747;933
747;934
747;935
746;936
746;937
747;938
747;939
747;940
746;941
747;942
747;943
746;944
746;945
747;946
746;947
747;948
747;949
747;950
746;951
747;952
747;953
747;954
747;955
747;956
746;957
747;958
747;959
747;960
747;961
746;962
746;963
747;964
747;965
747;966
747;967
747;968
747;969
747;970
747;971
747;972
747;973
747;974
747;975
747;976
747;977
747;978
747;979
747;980
747;981
747;982
747;983
747;984
747;985
747;986
747;987
746;988
747;989
746;990
746;991
746;992
747;993
746;994
746;995
746;996
747;997
746;998
747;999
746;1000
746;1001
746;1002
746;1003
746;1004
746;1005
746;1006
747;1007
747;1008
746;1009
746;1010
746;1011
746;1012
746;1013
746;1014
746;1015
746;1016
746;1017
746;1018
746;1019
747;1020
746;1021
746;1022
746;1023
746;1024
747;1025
746;1026
747;1027
747;1028
747;1029
747;1030
746;1031
747;1032
747;1033
746;1034
746;1035
747;1036
747;1037
746;1038
747;1039
746;1040
747;1041
747;1042
746;1043
747;1044
746;1045
746;1046
746;1047
746;1048
746;1049
746;1050
746;1051
746;1052
746;1053
746;1054
746;1055
746;1056
746;1057
746;1058
746;1059
746;1060
746;1061
746;1062
746;1063
746;1064
746;1065
746;1066
746;1067
746;1068
746;1069
746;1070
746;1071
746;1072
746;1073
746;1074
746;1075
746;1076
746;1077
746;1078
747;1079
746;1080
746;1081
746;1082
746;1083
747;1084
747;1085
747;1086
746;1087
746;1088
747;1089
747;1090
747;1091
747;1092
747;1093
747;1094
747;1095
747;1096
747;1097
746;1098
746;1099
746;1100
746;1101
746;1102
746;1103
746;1104
746;1105
746;1106
746;1107
746;1108
746;1109
747;1110
746;1111
746;1112
746;1113
746;1114
746;1115
746;1116
746;1117
746;1118
746;1119
746;1120
746;1121
746;1122
746;1123
746;1124
746;1125
746;1126
746;1127
746;1128
746;1129
746;1130
746;1131
746;1132
746;1133
746;1134
746;1135
746;1136
746;1137
746;1138
746;1139
747;1140
746;1141
746;1142
746;1143
746;1144
746;1145
747;1146
747;1147
746;1148
746;1149
746;1150
746;1151
746;1152
746;1153
746;1154
746;1155
746;1156
746;1157
746;1158
746;1159
746;1160
746;1161
746;1162
746;1163
746;1164
746;1165
746;1166
746;1167
746;1168
746;1169
746;1170
746;1171
746;1172
746;1173
746;1174
746;1175
746;1176
746;1177
746;1178
746;1179
746;1180
746;1181
746;1182
746;1183
746;1184
746;1185
746;1186
746;1187
746;1188
746;1189
746;1190
746;1191
746;1192
746;1193
746;1194
746;1195
746;1196
746;1197
746;1198
746;1199
746;1200
746;1201
746;1202
746;1203
747;1204
746;1205
746;1206
746;1207
746;1208
746;1209
746;1210
746;1211
746;1212
746;1213
746;1214
746;1215
746;1216
746;1217
746;1218
746;1219
746;1220
746;1221
746;1222
746;1223
746;1224
746;1225
746;1226
746;1227
746;1228
746;1229
746;1230
746;1231
746;1232
746;1233
746;1234
746;1235
746;1236
746;1237
746;1238
746;1239
746;1240
746;1241
746;1242
746;1243
746;1244
746;1245
746;1246
746;1247
746;1248
746;1249
746;1250
746;1251
746;1252
746;1253
747;1254
746;1255
746;1256
747;1257
746;1258
746;1259
746;1260
746;1261
746;1262
746;1263
746;1264
747;1265
747;1266
747;1267
747;1268
747;1269
747;1270
746;1271
746;1272
747;1273
746;1274
746;1275
746;1276
746;1277
746;1278
746;1279
746;1280
746;1281
746;1282
747;1283
746;1284
747;1285
746;1286
746;1287
746;1288
746;1289
747;1290
746;1291
746;1292
747;1293
747;1294
747;1295
746;1296
746;1297
747;1298
747;1299
747;1300
747;1301
747;1302
746;1303
747;1304
746;1305
747;1306
747;1307
747;1308
747;1309
747;1310
747;1311
747;1312
747;1313
747;1314
747;1315
747;1316
747;1317
747;1318
747;1319
747;1320
747;1321
747;1322
747;1323
747;1324
747;1325
747;1326
747;1327
747;1328
747;1329
746;1330
747;1331
746;1332
746;1333
746;1334
746;1335
746;1336
746;1337
746;1338
746;1339
746;1340
746;1341
746;1342
746;1343
746;1344
746;1345
746;1346
746;1347
746;1348
746;1349
746;1350
746;1351
746;1352
746;1353
746;1354
746;1355
746;1356
746;1357
746;1358
746;1359
746;1360
746;1361
746;1362
747;1363
746;1364
747;1365
746;1366
747;1367
747;1368
746;1369
747;1370
746;1371
747;1372
746;1373
747;1374
747;1375
746;1376
747;1377
746;1378
746;1379
746;1380
746;1381
746;1382
746;1383
747;1384
747;1385
747;1386
747;1387
746;1388
746;1389
747;1390
746;1391
746;1392
746;1393
746;1394
746;1395
746;1396
746;1397
746;1398
746;1399
746;1400
746;1401
746;1402
747;1403
746;1404
747;1405
747;1406
746;1407
746;1408
747;1409
746;1410
746;1411
747;1412
747;1413
746;1414
746;1415
747;1416
746;1417
747;1418
747;1419
747;1420
747;1421
746;1422
747;1423
747;1424
746;1425
747;1426
747;1427
747;1428
747;1429
747;1430
747;1431
747;1432
747;1433
747;1434
747;1435
747;1436
747;1437
747;1438
747;1439
747;1440
746;1441
747;1442
747;1443
747;1444
747;1445
747;1446
747;1447
747;1448
747;1449
747;1450
747;1451
747;1452
747;1453
747;1454
747;1455
747;1456
747;1457
747;1458
747;1459
747;1460
747;1461
747;1462
747;1463
747;1464
747;1465
747;1466
747;1467
747;1468
747;1469
747;1470
747;1471
747;1472
747;1473
747;1474
747;1475
747;1476
747;1477
747;1478
747;1479
747;1480
747;1481
747;1482
747;1483
747;1484
747;1485
747;1486
747;1487
747;1488
747;1489
747;1490
747;1491
747;1492
747;1493
747;1494
747;1495
747;1496
747;1497
747;1498
747;1499
747;1500
747;1501
747;1502
747;1503
747;1504
747;1505
747;1506
747;1507
747;1508
747;1509
747;1510
747;1511
747;1512
747;1513
747;1514
747;1515
747;1516
747;1517
747;1518
747;1519
747;1520
747;1521
747;1522
747;1523
747;1524
747;1525
747;1526
747;1527
747;1528
747;1529
747;1530
747;1531
747;1532
747;1533
748;1534
747;1535
748;1536
748;1537
748;1538
748;1539
748;1540
748;1541
748;1542
748;1543
748;1544
748;1545
748;1546
748;1547
747;1548
748;1549
747;1550
748;1551
748;1552
747;1553
747;1554
748;1555
747;1556
747;1557
748;1558
747;1559
748;1560
748;1561
747;1562
747;1563
747;1564
747;1565
747;1566
747;1567
747;1568
747;1569
747;1570
747;1571
747;1572
748;1573
748;1574
747;1575
748;1576
747;1577
748;1578
747;1579
748;1580
747;1581
747;1582
748;1583
747;1584
747;1585
748;1586
747;1587
748;1588
748;1589
747;1590
748;1591
748;1592
748;1593
748;1594
748;1595
747;1596
748;1597
748;1598
748;1599
748;1600
748;1601
748;1602
748;1603
748;1604
748;1605
748;1606
748;1607
748;1608
748;1609
748;1610
748;1611
748;1612
748;1613
748;1614
748;1615
748;1616
747;1617
747;1618
748;1619
747;1620
748;1621
748;1622
747;1623
748;1624
748;1625
747;1626
748;1627
747;1628
748;1629
747;1630
748;1631
748;1632
748;1633
747;1634
748;1635
748;1636
748;1637
747;1638
748;1639
748;1640
748;1641
748;1642
748;1643
748;1644
748;1645
748;1646
748;1647
748;1648
748;1649
748;1650
748;1651
748;1652
748;1653
748;1654
748;1655
748;1656
748;1657
748;1658
748;1659
748;1660
748;1661
748;1662
748;1663
747;1664
748;1665
748;1666
748;1667
748;1668
748;1669
748;1670
748;1671
748;1672
747;1673
748;1674
748;1675
748;1676
747;1677
747;1678
747;1679
747;1680
747;1681
747;1682
748;1683
748;1684
748;1685
747;1686
748;1687
747;1688
748;1689
748;1690
747;1691
747;1692
747;1693
747;1694
747;1695
748;1696
747;1697
748;1698
747;1699
748;1700
748;1701
748;1702
748;1703
748;1704
747;1705
747;1706
748;1707
748;1708
748;1709
747;1710
748;1711
748;1712
748;1713
748;1714
748;1715
747;1716
747;1717
748;1718
747;1719
748;1720
747;1721
747;1722
747;1723
748;1724
747;1725
747;1726
747;1727
747;1728
747;1729
747;1730
747;1731
748;1732
748;1733
747;1734
747;1735
747;1736
747;1737
747;1738
747;1739
747;1740
747;1741
747;1742
747;1743
747;1744
747;1745
747;1746
747;1747
747;1748
747;1749
747;1750
747;1751
747;1752
747;1753
747;1754
747;1755
747;1756
747;1757
748;1758
747;1759
748;1760
748;1761
748;1762
747;1763
747;1764
748;1765
747;1766
748;1767
747;1768
747;1769
747;1770
747;1771
747;1772
747;1773
747;1774
747;1775
747;1776
747;1777
747;1778
747;1779
747;1780
747;1781
747;1782
747;1783
747;1784
747;1785
747;1786
747;1787
747;1788
747;1789
747;1790
747;1791
747;1792
747;1793
747;1794
747;1795
747;1796
747;1797
747;1798
747;1799
747;1800
747;1801
747;1802
747;1803
747;1804
747;1805
747;1806
747;1807
747;1808
747;1809
747;1810
747;1811
747;1812
747;1813
747;1814
747;1815
747;1816
748;1817
747;1818
747;1819
747;1820
747;1821
747;1822
747;1823
747;1824
747;1825
747;1826
747;1827
747;1828
748;1829
748;1830
747;1831
747;1832
748;1833
747;1834
747;1835
747;1836
747;1837
747;1838
747;1839
747;1840
747;1841
747;1842
747;1843
747;1844
747;1845
747;1846
747;1847
747;1848
747;1849
747;1850
747;1851
747;1852
747;1853
747;1854
747;1855
747;1856
747;1857
747;1858
747;1859
747;1860
747;1861
747;1862
747;1863
747;1864
747;1865
747;1866
747;1867
747;1868
747;1869
747;1870
748;1871
747;1872
747;1873
748;1874
747;1875
747;1876
747;1877
748;1878
747;1879
747;1880
747;1881
747;1882
747;1883
748;1884
747;1885
748;1886
747;1887
747;1888
748;1889
747;1890
747;1891
747;1892
747;1893
747;1894
748;1895
747;1896
748;1897
747;1898
748;1899
748;1900
747;1901
747;1902
747;1903
747;1904
747;1905
747;1906
747;1907
748;1908
747;1909
747;1910
747;1911
747;1912
748;1913
748;1914
747;1915
748;1916
747;1917
748;1918
747;1919
747;1920
747;1921
747;1922
748;1923
748;1924
748;1925
748;1926
748;1927
748;1928
747;1929
747;1930
748;1931
748;1932
748;1933
748;1934
748;1935
748;1936
748;1937
748;1938
748;1939
748;1940
748;1941
748;1942
748;1943
748;1944
748;1945
748;1946
747;1947
748;1948
748;1949
747;1950
747;1951
747;1952
747;1953
747;1954
747;1955
747;1956
747;1957
747;1958
747;1959
747;1960
747;1961
747;1962
747;1963
747;1964
747;1965
747;1966
747;1967
747;1968
747;1969
747;1970
747;1971
747;1972
747;1973
747;1974
747;1975
747;1976
747;1977
747;1978
748;1979
747;1980
747;1981
747;1982
747;1983
748;1984
747;1985
747;1986
747;1987
747;1988
748;1989
748;1990
748;1991
748;1992
748;1993
748;1994
747;1995
748;1996
747;1997
748;1998
748;1999
747;2000
747;2001
747;2002
747;2003
747;2004
747;2005
747;2006
747;2007
747;2008
748;2009
747;2010
747;2011
747;2012
747;2013
748;2014
747;2015
747;2016
747;2017
747;2018
747;2019
747;2020
747;2021
747;2022
747;2023
747;2024
747;2025
747;2026
747;2027
747;2028
747;2029
747;2030
747;2031
747;2032
747;2033
747;2034
747;2035
747;2036
747;2037
747;2038
747;2039
747;2040
747;2041
747;2042
748;2043
747;2044
748;2045
748;2046
747;2047
747;2048
747;2049
747;2050
747;2051
747;2052
747;2053
747;2054
748;2055
748;2056
747;2057
748;2058
747;2059
747;2060
747;2061
747;2062
747;2063
747;2064
747;2065
747;2066
747;2067
747;2068
747;2069
747;2070
747;2071
747;2072
747;2073
747;2074
747;2075
747;2076
747;2077
747;2078
747;2079
747;2080
747;2081
747;2082
747;2083
747;2084
747;2085
747;2086
747;2087
747;2088
747;2089
747;2090
747;2091
747;2092
747;2093
747;2094
747;2095
747;2096
747;2097
747;2098
747;2099
747;2100
747;2101
747;2102
747;2103
747;2104
747;2105
747;2106
747;2107
747;2108
747;2109
747;2110
747;2111
747;2112
747;2113
747;2114
747;2115
747;2116
747;2117
747;2118
747;2119
747;2120
747;2121
747;2122
747;2123
747;2124
746;2125
747;2126
747;2127
747;2128
747;2129
746;2130
746;2131
746;2132
747;2133
747;2134
747;2135
747;2136
747;2137
746;2138
746;2139
746;2140
746;2141
746;2142
746;2143
747;2144
747;2145
746;2146
747;2147
747;2148
746;2149
746;2150
746;2151
747;2152
747;2153
747;2154
746;2155
746;2156
746;2157
747;2158
747;2159
747;2160
747;2161
747;2162
747;2163
746;2164
747;2165
746;2166
746;2167
747;2168
747;2169
747;2170
746;2171
746;2172
746;2173
746;2174
747;2175
746;2176
746;2177
746;2178
746;2179
746;2180
746;2181
746;2182
745;2183
746;2184
746;2185
745;2186
745;2187
746;2188
746;2189
745;2190
745;2191
745;2192
745;2193
745;2194
745;2195
745;2196
745;2197
745;2198
745;2199
745;2200
745;2201
745;2202
745;2203
745;2204
745;2205
745;2206
745;2207
745;2208
745;2209
745;2210
745;2211
745;2212
745;2213
745;2214
745;2215
745;2216
745;2217
745;2218
745;2219
745;2220
745;2221
745;2222
745;2223
745;2224
745;2225
745;2226
745;2227
746;2228
746;2229
746;2230
746;2231
745;2232
746;2233
746;2234
746;2235
745;2236
746;2237
746;2238
746;2239
745;2240
745;2241
745;2242
745;2243
745;2244
745;2245
745;2246
745;2247
745;2248
745;2249
745;2250
744;2251
745;2252
745;2253
745;2254
745;2255
744;2256
744;2257
745;2258
745;2259
745;2260
745;2261
745;2262
745;2263
745;2264
745;2265
745;2266
745;2267
745;2268
745;2269
745;2270
745;2271
745;2272
744;2273
744;2274
744;2275
744;2276
744;2277
743;2278
744;2279
743;2280
743;2281
743;2282
743;2283
743;2284
743;2285
743;2286
743;2287
743;2288
744;2289
744;2290
744;2291
744;2292
744;2293
744;2294
744;2295
744;2296
744;2297
744;2298
744;2299
744;2300
745;2301
744;2302
745;2303
745;2304
745;2305
745;2306
745;2307
745;2308
745;2309
745;2310
745;2311
745;2312
744;2313
745;2314
744;2315
745;2316
745;2317
744;2318
744;2319
744;2320
744;2321
744;2322
744;2323
744;2324
744;2325
744;2326
744;2327
744;2328
744;2329
744;2330
744;2331
745;2332
744;2333
744;2334
744;2335
744;2336
744;2337
745;2338
745;2339
745;2340
745;2341
745;2342
745;2343
745;2344
745;2345
745;2346
745;2347
745;2348
745;2349
746;2350
746;2351
746;2352
746;2353
746;2354
746;2355
746;2356
746;2357
746;2358
746;2359
746;2360
746;2361
746;2362
746;2363
746;2364
746;2365
746;2366
746;2367
746;2368
746;2369
747;2370
746;2371
747;2372
747;2373
746;2374
747;2375
747;2376
747;2377
747;2378
747;2379
747;2380
747;2381
747;2382
747;2383
747;2384
747;2385
746;2386
747;2387
747;2388
746;2389
746;2390
746;2391
746;2392
746;2393
746;2394
746;2395
746;2396
746;2397
746;2398
745;2399
745;2400
746;2401
745;2402
746;2403
745;2404
745;2405
745;2406
745;2407
745;2408
745;2409
745;2410
745;2411
745;2412
745;2413
745;2414
745;2415
745;2416
745;2417
745;2418
745;2419
745;2420
746;2421
745;2422
745;2423
745;2424
745;2425
745;2426
745;2427
745;2428
745;2429
744;2430
744;2431
744;2432
744;2433
744;2434
745;2435
745;2436
745;2437
745;2438
745;2439
745;2440
745;2441
746;2442
746;2443
746;2444
746;2445
747;2446
747;2447
747;2448
747;2449
747;2450
747;2451
747;2452
747;2453
747;2454
747;2455
747;2456
747;2457
747;2458
747;2459
747;2460
747;2461
747;2462
746;2463
747;2464
746;2465
746;2466
746;2467
746;2468
746;2469
746;2470
745;2471
745;2472
745;2473
745;2474
745;2475
745;2476
745;2477
745;2478
745;2479
745;2480
744;2481
744;2482
744;2483
744;2484
744;2485
744;2486
744;2487
743;2488
743;2489
743;2490
743;2491
743;2492
743;2493
743;2494
743;2495
743;2496
743;2497
743;2498
743;2499
744;2500
744;2501
744;2502
744;2503
744;2504
744;2505
744;2506
745;2507
744;2508
745;2509
745;2510
745;2511
745;2512
745;2513
745;2514
746;2515
746;2516
746;2517
746;2518
745;2519
746;2520
746;2521
746;2522
746;2523
746;2524
746;2525
747;2526
746;2527
747;2528
747;2529
747;2530
747;2531
748;2532
748;2533
748;2534
748;2535
748;2536
748;2537
748;2538
748;2539
748;2540
748;2541
749;2542
749;2543
749;2544
749;2545
749;2546
749;2547
749;2548
749;2549
749;2550
749;2551
749;2552
748;2553
748;2554
748;2555
747;2556
746;2557
746;2558
746;2559
745;2560
745;2561
745;2562
745;2563
744;2564
745;2565
744;2566
744;2567
744;2568
744;2569
744;2570
744;2571
744;2572
743;2573
743;2574
743;2575
743;2576
744;2577
743;2578
744;2579
743;2580
744;2581
744;2582
744;2583
744;2584
744;2585
744;2586
744;2587
745;2588
745;2589
745;2590
745;2591
745;2592
745;2593
745;2594
745;2595
745;2596
745;2597
744;2598
744;2599
744;2600
744;2601
743;2602
742;2603
742;2604
742;2605
741;2606
741;2607
741;2608
740;2609
740;2610
740;2611
740;2612
741;2613
741;2614
741;2615
741;2616
741;2617
740;2618
740;2619
741;2620
740;2621
740;2622
741;2623
741;2624
741;2625
741;2626
741;2627
741;2628
741;2629
741;2630
741;2631
741;2632
742;2633
742;2634
742;2635
742;2636
743;2637
743;2638
743;2639
744;2640
744;2641
744;2642
745;2643
745;2644
745;2645
745;2646
745;2647
745;2648
746;2649
746;2650
746;2651
747;2652
747;2653
747;2654
747;2655
748;2656
748;2657
748;2658
749;2659
748;2660
749;2661
749;2662
749;2663
750;2664
750;2665
750;2666
750;2667
751;2668
751;2669
751;2670
751;2671
751;2672
751;2673
751;2674
751;2675
751;2676
752;2677
752;2678
752;2679
752;2680
752;2681
752;2682
752;2683
753;2684
753;2685
753;2686
752;2687
752;2688
752;2689
752;2690
753;2691
752;2692
752;2693
752;2694
753;2695
753;2696
753;2697
753;2698
753;2699
754;2700
754;2701
754;2702
754;2703
754;2704
754;2705
754;2706
754;2707
754;2708
754;2709
754;2710
753;2711
753;2712
753;2713
753;2714
753;2715
753;2716
753;2717
753;2718
753;2719
752;2720
753;2721
752;2722
752;2723
751;2724
751;2725
751;2726
751;2727
751;2728
751;2729
751;2730
750;2731
750;2732
751;2733
750;2734
750;2735
750;2736
750;2737
750;2738
750;2739
750;2740
750;2741
750;2742
750;2743
750;2744
750;2745
750;2746
750;2747
751;2748
751;2749
751;2750
752;2751
751;2752
751;2753
751;2754
751;2755
751;2756
750;2757
750;2758
750;2759
750;2760
750;2761
750;2762
750;2763
750;2764
749;2765
749;2766
749;2767
749;2768
749;2769
748;2770
748;2771
748;2772
747;2773
747;2774
747;2775
747;2776
747;2777
747;2778
746;2779
746;2780
746;2781
745;2782
745;2783
745;2784
745;2785
744;2786
744;2787
744;2788
744;2789
744;2790
745;2791
745;2792
744;2793
744;2794
744;2795
743;2796
742;2797
740;2798
739;2799
739;2800
738;2801
738;2802
738;2803
738;2804
738;2805
738;2806
738;2807
739;2808
740;2809
741;2810
742;2811
743;2812
743;2813
744;2814
745;2815
745;2816
745;2817
745;2818
745;2819
744;2820
744;2821
744;2822
743;2823
743;2824
743;2825
743;2826
743;2827
744;2828
744;2829
744;2830
744;2831
745;2832
746;2833
746;2834
748;2835
748;2836
749;2837
749;2838
750;2839
750;2840
751;2841
752;2842
752;2843
753;2844
753;2845
753;2846
754;2847
754;2848
755;2849
755;2850
755;2851
755;2852
753;2853
752;2854
752;2855
751;2856
750;2857
749;2858
749;2859
748;2860
748;2861
748;2862
748;2863
748;2864
748;2865
748;2866
748;2867
748;2868
749;2869
749;2870
750;2871
751;2872
752;2873
752;2874
753;2875
754;2876
755;2877
756;2878
756;2879
757;2880
758;2881
758;2882
758;2883
758;2884
758;2885
759;2886
758;2887
757;2888
756;2889
753;2890
752;2891
751;2892
750;2893
749;2894
748;2895
747;2896
748;2897
748;2898
748;2899
748;2900
748;2901
749;2902
750;2903
751;2904
752;2905
752;2906
752;2907
752;2908
752;2909
752;2910
752;2911
753;2912
753;2913
753;2914
753;2915
752;2916
752;2917
751;2918
750;2919
750;2920
749;2921
749;2922
748;2923
748;2924
747;2925
747;2926
746;2927
746;2928
746;2929
746;2930
745;2931
745;2932
744;2933
744;2934
744;2935
744;2936
744;2937
745;2938
746;2939
747;2940
747;2941
748;2942
749;2943
749;2944
750;2945
752;2946
752;2947
753;2948
753;2949
754;2950
754;2951
755;2952
756;2953
756;2954
756;2955
757;2956
756;2957
754;2958
753;2959
752;2960
751;2961
750;2962
749;2963
748;2964
748;2965
748;2966
748;2967
748;2968
748;2969
748;2970
748;2971
748;2972
747;2973
747;2974
747;2975
746;2976
746;2977
746;2978
745;2979
746;2980
746;2981
746;2982
746;2983
746;2984
746;2985
747;2986
747;2987
748;2988
748;2989
748;2990
749;2991
749;2992
749;2993
750;2994
750;2995
750;2996
750;2997
750;2998
750;2999
750;3000
749;3001
748;3002
748;3003
748;3004
747;3005
747;3006
746;3007
746;3008
747;3009
747;3010
748;3011
747;3012
747;3013
747;3014
747;3015
747;3016
747;3017
746;3018
745;3019
744;3020
744;3021
744;3022
744;3023
745;3024
745;3025
746;3026
746;3027
747;3028
748;3029
748;3030
749;3031
750;3032
751;3033
751;3034
752;3035
753;3036
753;3037
753;3038
753;3039
753;3040
754;3041
754;3042
755;3043
756;3044
757;3045
757;3046
758;3047
758;3048
758;3049
759;3050
760;3051
760;3052
760;3053
761;3054
761;3055
761;3056
761;3057
761;3058
761;3059
760;3060
759;3061
757;3062
754;3063
752;3064
751;3065
750;3066
748;3067
747;3068
746;3069
745;3070
745;3071
744;3072
744;3073
744;3074
744;3075
745;3076
745;3077
746;3078
746;3079
747;3080
747;3081
748;3082
749;3083
749;3084
749;3085
750;3086
751;3087
752;3088
753;3089
754;3090
754;3091
755;3092
755;3093
757;3094
757;3095
756;3096
755;3097
755;3098
754;3099
751;3100
750;3101
748;3102
747;3103
746;3104
744;3105
742;3106
741;3107
740;3108
740;3109
739;3110
739;3111
737;3112
736;3113
735;3114
734;3115
733;3116
733;3117
732;3118
730;3119
728;3120
727;3121
726;3122
726;3123
725;3124
725;3125
726;3126
727;3127
728;3128
729;3129
731;3130
734;3131
736;3132
738;3133
739;3134
741;3135
742;3136
745;3137
746;3138
747;3139
747;3140
748;3141
749;3142
749;3143
749;3144
748;3145
748;3146
748;3147
748;3148
748;3149
748;3150
748;3151
749;3152
749;3153
749;3154
749;3155
749;3156
750;3157
750;3158
750;3159
750;3160
751;3161
751;3162
751;3163
751;3164
751;3165
750;3166
750;3167
749;3168
749;3169
748;3170
748;3171
747;3172
747;3173
747;3174
747;3175
746;3176
746;3177
746;3178
746;3179
745;3180
745;3181
743;3182
742;3183
741;3184
739;3185
737;3186
735;3187
733;3188
733;3189
732;3190
732;3191
731;3192
732;3193
732;3194
733;3195
733;3196
734;3197
735;3198
736;3199
739;3200
740;3201
741;3202
742;3203
743;3204
744;3205
746;3206
747;3207
748;3208
749;3209
749;3210
750;3211
752;3212
753;3213
754;3214
754;3215
755;3216
756;3217
757;3218
757;3219
757;3220
758;3221
758;3222
758;3223
758;3224
757;3225
757;3226
757;3227
757;3228
757;3229
757;3230
757;3231
757;3232
757;3233
757;3234
757;3235
758;3236
758;3237
758;3238
759;3239
759;3240
759;3241
760;3242
760;3243
761;3244
761;3245
761;3246
761;3247
761;3248
762;3249
762;3250
762;3251
762;3252
762;3253
761;3254
761;3255
761;3256
761;3257
761;3258
761;3259
761;3260
762;3261
761;3262
761;3263
760;3264
759;3265
757;3266
754;3267
747;3268
744;3269
742;3270
740;3271
738;3272
736;3273
733;3274
733;3275
733;3276
733;3277
733;3278
734;3279
734;3280
735;3281
734;3282
735;3283
735;3284
734;3285
734;3286
733;3287
732;3288
730;3289
729;3290
727;3291
726;3292
726;3293
726;3294
726;3295
727;3296
727;3297
729;3298
731;3299
732;3300
734;3301
735;3302
736;3303
738;3304
741;3305
742;3306
744;3307
746;3308
747;3309
749;3310
751;3311
752;3312
752;3313
753;3314
754;3315
755;3316
756;3317
757;3318
758;3319
758;3320
759;3321
760;3322
761;3323
762;3324
762;3325
763;3326
763;3327
764;3328
764;3329
765;3330
765;3331
765;3332
765;3333
765;3334
763;3335
759;3336
757;3337
755;3338
753;3339
752;3340
751;3341
751;3342
751;3343
751;3344
752;3345
752;3346
753;3347
755;3348
756;3349
758;3350
758;3351
760;3352
761;3353
763;3354
764;3355
765;3356
765;3357
766;3358
766;3359
766;3360
766;3361
765;3362
765;3363
764;3364
764;3365
765;3366
765;3367
765;3368
765;3369
766;3370
766;3371
766;3372
767;3373
767;3374
767;3375
767;3376
767;3377
767;3378
767;3379
768;3380
768;3381
768;3382
768;3383
768;3384
767;3385
768;3386
767;3387
767;3388
767;3389
767;3390
767;3391
767;3392
766;3393
766;3394
765;3395
763;3396
762;3397
760;3398
759;3399
758;3400
757;3401
756;3402
755;3403
754;3404
754;3405
753;3406
753;3407
753;3408
753;3409
753;3410
754;3411
753;3412
752;3413
752;3414
751;3415
750;3416
750;3417
749;3418
749;3419
749;3420
749;3421
749;3422
750;3423
750;3424
751;3425
751;3426
751;3427
751;3428
751;3429
751;3430
752;3431
752;3432
753;3433
755;3434
756;3435
757;3436
758;3437
759;3438
760;3439
759;3440
754;3441
749;3442
745;3443
741;3444
737;3445
734;3446
729;3447
727;3448
726;3449
725;3450
724;3451
723;3452
722;3453
722;3454
722;3455
723;3456
724;3457
725;3458
726;3459
729;3460
731;3461
733;3462
734;3463
736;3464
738;3465
741;3466
743;3467
744;3468
747;3469
749;3470
751;3471
755;3472
756;3473
757;3474
758;3475
759;3476
758;3477
755;3478
754;3479
752;3480
751;3481
749;3482
748;3483
745;3484
745;3485
744;3486
744;3487
744;3488
744;3489
744;3490
746;3491
747;3492
748;3493
749;3494
750;3495
752;3496
755;3497
756;3498
757;3499
759;3500
760;3501
761;3502
763;3503
764;3504
765;3505
766;3506
767;3507
768;3508
769;3509
769;3510
769;3511
769;3512
769;3513
769;3514
768;3515
767;3516
766;3517
765;3518
763;3519
762;3520
760;3521
759;3522
758;3523
757;3524
756;3525
755;3526
755;3527
754;3528
753;3529
753;3530
752;3531
752;3532
752;3533
753;3534
753;3535
754;3536
754;3537
754;3538
754;3539
755;3540
754;3541
754;3542
754;3543
754;3544
754;3545
754;3546
755;3547
755;3548
755;3549
756;3550
756;3551
757;3552
757;3553
758;3554
758;3555
759;3556
759;3557
759;3558
759;3559
759;3560
760;3561
760;3562
760;3563
760;3564
760;3565
759;3566
759;3567
759;3568
759;3569
758;3570
758;3571
758;3572
758;3573
758;3574
757;3575
757;3576
756;3577
756;3578
756;3579
756;3580
757;3581
757;3582
758;3583
759;3584
760;3585
761;3586
761;3587
763;3588
764;3589
765;3590
766;3591
767;3592
767;3593
768;3594
768;3595
768;3596
767;3597
766;3598
765;3599
763;3600
762;3601
760;3602
759;3603
759;3604
759;3605
758;3606
757;3607
752;3608
748;3609
744;3610
741;3611
739;3612
737;3613
735;3614
735;3615
734;3616
734;3617
735;3618
734;3619
735;3620
735;3621
735;3622
735;3623
735;3624
735;3625
732;3626
730;3627
729;3628
727;3629
725;3630
724;3631
722;3632
720;3633
720;3634
720;3635
720;3636
721;3637
722;3638
724;3639
725;3640
727;3641
729;3642
731;3643
732;3644
736;3645
738;3646
739;3647
742;3648
744;3649
747;3650
751;3651
752;3652
754;3653
755;3654
756;3655
756;3656
758;3657
759;3658
759;3659
759;3660
759;3661
759;3662
759;3663
759;3664
758;3665
759;3666
759;3667
758;3668
758;3669
759;3670
759;3671
760;3672
760;3673
761;3674
761;3675
763;3676
763;3677
764;3678
765;3679
766;3680
766;3681
768;3682
768;3683
769;3684
769;3685
770;3686
770;3687
771;3688
771;3689
772;3690
772;3691
773;3692
773;3693
773;3694
773;3695
774;3696
774;3697
774;3698
773;3699
772;3700
770;3701
768;3702
768;3703
767;3704
767;3705
766;3706
766;3707
766;3708
766;3709
766;3710
766;3711
767;3712
768;3713
768;3714
768;3715
769;3716
769;3717
770;3718
770;3719
771;3720
771;3721
770;3722
769;3723
768;3724
767;3725
766;3726
765;3727
765;3728
765;3729
764;3730
764;3731
764;3732
763;3733
763;3734
763;3735
762;3736
761;3737
759;3738
757;3739
754;3740
751;3741
748;3742
744;3743
737;3744
735;3745
734;3746
733;3747
733;3748
733;3749
736;3750
737;3751
738;3752
739;3753
740;3754
741;3755
744;3756
746;3757
748;3758
749;3759
750;3760
751;3761
753;3762
754;3763
754;3764
755;3765
755;3766
756;3767
756;3768
756;3769
756;3770
756;3771
755;3772
755;3773
755;3774
756;3775
755;3776
755;3777
755;3778
754;3779
754;3780
753;3781
752;3782
751;3783
749;3784
747;3785
744;3786
740;3787
738;3788
736;3789
735;3790
734;3791
734;3792
733;3793
734;3794
735;3795
736;3796
738;3797
739;3798
741;3799
745;3800
746;3801
747;3802
748;3803
748;3804
748;3805
747;3806
748;3807
748;3808
749;3809
750;3810
751;3811
753;3812
754;3813
755;3814
755;3815
756;3816
756;3817
757;3818
758;3819
758;3820
759;3821
759;3822
760;3823
760;3824
761;3825
761;3826
761;3827
761;3828
761;3829
762;3830
763;3831
764;3832
765;3833
765;3834
765;3835
765;3836
765;3837
764;3838
764;3839
764;3840
763;3841
763;3842
762;3843
761;3844
761;3845
760;3846
760;3847
761;3848
762;3849
762;3850
763;3851
763;3852
764;3853
764;3854
765;3855
766;3856
767;3857
768;3858
768;3859
769;3860
770;3861
770;3862
770;3863
769;3864
769;3865
769;3866
769;3867
768;3868
767;3869
765;3870
764;3871
762;3872
761;3873
758;3874
757;3875
756;3876
754;3877
754;3878
753;3879
753;3880
753;3881
753;3882
753;3883
753;3884
753;3885
753;3886
752;3887
751;3888
752;3889
752;3890
752;3891
752;3892
754;3893
755;3894
756;3895
758;3896
759;3897
761;3898
764;3899
765;3900
766;3901
767;3902
767;3903
766;3904
765;3905
764;3906
764;3907
764;3908
764;3909
764;3910
765;3911
767;3912
767;3913
768;3914
768;3915
768;3916
769;3917
769;3918
768;3919
768;3920
767;3921
766;3922
764;3923
764;3924
763;3925
763;3926
762;3927
762;3928
761;3929
759;3930
757;3931
755;3932
753;3933
751;3934
750;3935
748;3936
748;3937
748;3938
748;3939
749;3940
749;3941
749;3942
749;3943
750;3944
750;3945
751;3946
751;3947
753;3948
753;3949
754;3950
754;3951
753;3952
753;3953
751;3954
751;3955
750;3956
750;3957
750;3958
751;3959
751;3960
751;3961
750;3962
749;3963
748;3964
746;3965
745;3966
743;3967
741;3968
740;3969
739;3970
739;3971
739;3972
738;3973
738;3974
737;3975
737;3976
736;3977
737;3978
737;3979
738;3980
738;3981
739;3982
740;3983
742;3984
745;3985
746;3986
748;3987
749;3988
751;3989
752;3990
753;3991
754;3992
755;3993
756;3994
757;3995
757;3996
758;3997
760;3998
761;3999
760;4000
759;4001
757;4002
755;4003
753;4004
751;4005
751;4006
750;4007
749;4008
749;4009
749;4010
750;4011
750;4012
751;4013
752;4014
754;4015
756;4016
758;4017
759;4018
760;4019
761;4020
761;4021
763;4022
763;4023
763;4024
764;4025
764;4026
764;4027
765;4028
765;4029
765;4030
766;4031
766;4032
765;4033
765;4034
764;4035
764;4036
764;4037
764;4038
764;4039
764;4040
764;4041
763;4042
762;4043
760;4044
759;4045
758;4046
757;4047
757;4048
758;4049
758;4050
758;4051
758;4052
759;4053
760;4054
760;4055
761;4056
760;4057
759;4058
757;4059
753;4060
752;4061
750;4062
749;4063
748;4064
747;4065
745;4066
744;4067
744;4068
743;4069
742;4070
740;4071
733;4072
730;4073
727;4074
726;4075
725;4076
725;4077
726;4078
727;4079
729;4080
731;4081
733;4082
736;4083
742;4084
745;4085
747;4086
750;4087
752;4088
753;4089
755;4090
757;4091
757;4092
758;4093
759;4094
760;4095
760;4096
761;4097
762;4098
763;4099
763;4100
762;4101
761;4102
749;4103
743;4104
737;4105
731;4106
727;4107
723;4108
719;4109
718;4110
717;4111
717;4112
717;4113
718;4114
719;4115
723;4116
725;4117
728;4118
730;4119
733;4120
735;4121
739;4122
740;4123
742;4124
743;4125
745;4126
746;4127
748;4128
749;4129
750;4130
751;4131
753;4132
755;4133
758;4134
759;4135
760;4136
761;4137
762;4138
762;4139
764;4140
764;4141
764;4142
764;4143
765;4144
765;4145
766;4146
766;4147
766;4148
766;4149
766;4150
767;4151
766;4152
766;4153
766;4154
766;4155
766;4156
766;4157
766;4158
767;4159
767;4160
768;4161
768;4162
769;4163
769;4164
770;4165
770;4166
769;4167
769;4168
768;4169
768;4170
768;4171
767;4172
766;4173
766;4174
765;4175
765;4176
765;4177
765;4178
765;4179
764;4180
763;4181
761;4182
759;4183
749;4184
745;4185
741;4186
737;4187
733;4188
730;4189
725;4190
724;4191
723;4192
722;4193
721;4194
721;4195
721;4196
721;4197
722;4198
723;4199
725;4200
726;4201
728;4202
731;4203
733;4204
735;4205
737;4206
739;4207
741;4208
743;4209
743;4210
745;4211
745;4212
746;4213
746;4214
748;4215
749;4216
749;4217
749;4218
748;4219
748;4220
748;4221
747;4222
746;4223
744;4224
743;4225
742;4226
741;4227
742;4228
743;4229
744;4230
746;4231
747;4232
748;4233
751;4234
753;4235
754;4236
755;4237
755;4238
755;4239
754;4240
753;4241
752;4242
749;4243
746;4244
743;4245
737;4246
735;4247
734;4248
733;4249
734;4250
734;4251
734;4252
735;4253
736;4254
737;4255
738;4256
740;4257
741;4258
745;4259
747;4260
748;4261
750;4262
752;4263
753;4264
753;4265
752;4266
751;4267
751;4268
749;4269
749;4270
748;4271
749;4272
748;4273
749;4274
749;4275
750;4276
751;4277
752;4278
752;4279
753;4280
754;4281
756;4282
757;4283
759;4284
760;4285
761;4286
762;4287
763;4288
764;4289
764;4290
764;4291
764;4292
763;4293
762;4294
760;4295
752;4296
746;4297
739;4298
732;4299
726;4300
722;4301
716;4302
714;4303
713;4304
713;4305
713;4306
715;4307
716;4308
720;4309
723;4310
725;4311
728;4312
731;4313
734;4314
740;4315
742;4316
744;4317
746;4318
747;4319
748;4320
751;4321
751;4322
751;4323
749;4324
748;4325
746;4326
743;4327
740;4328
739;4329
738;4330
737;4331
736;4332
736;4333
736;4334
737;4335
738;4336
739;4337
740;4338
742;4339
745;4340
746;4341
746;4342
745;4343
745;4344
744;4345
742;4346
741;4347
740;4348
739;4349
737;4350
734;4351
732;4352
729;4353
728;4354
728;4355
729;4356
729;4357
730;4358
733;4359
735;4360
736;4361
737;4362
738;4363
739;4364
740;4365
741;4366
742;4367
743;4368
745;4369
747;4370
748;4371
752;4372
753;4373
754;4374
755;4375
756;4376
758;4377
758;4378
758;4379
757;4380
756;4381
755;4382
755;4383
754;4384
753;4385
754;4386
754;4387
754;4388
755;4389
757;4390
758;4391
759;4392
760;4393
760;4394
760;4395
758;4396
758;4397
757;4398
757;4399
757;4400
757;4401
756;4402
756;4403
756;4404
757;4405
757;4406
758;4407
757;4408
757;4409
757;4410
755;4411
754;4412
752;4413
751;4414
750;4415
749;4416
749;4417
748;4418
748;4419
747;4420
747;4421
748;4422
748;4423
749;4424
750;4425
751;4426
753;4427
754;4428
754;4429
754;4430
754;4431
753;4432
753;4433
753;4434
754;4435
755;4436
754;4437
753;4438
751;4439
744;4440
741;4441
738;4442
736;4443
735;4444
733;4445
731;4446
730;4447
730;4448
729;4449
729;4450
729;4451
729;4452
731;4453
732;4454
734;4455
735;4456
737;4457
741;4458
743;4459
744;4460
744;4461
745;4462
746;4463
747;4464
748;4465
748;4466
749;4467
749;4468
749;4469
749;4470
748;4471
748;4472
747;4473
747;4474
747;4475
746;4476
743;4477
740;4478
738;4479
737;4480
736;4481
736;4482
736;4483
737;4484
737;4485
737;4486
738;4487
739;4488
742;4489
744;4490
746;4491
749;4492
751;4493
753;4494
756;4495
756;4496
757;4497
758;4498
758;4499
759;4500
758;4501
758;4502
757;4503
756;4504
755;4505
754;4506
753;4507
753;4508
752;4509
752;4510
753;4511
753;4512
753;4513
752;4514
750;4515
748;4516
745;4517
743;4518
741;4519
738;4520
738;4521
738;4522
738;4523
738;4524
739;4525
739;4526
737;4527
734;4528
731;4529
729;4530
728;4531
728;4532
728;4533
729;4534
729;4535
729;4536
730;4537
731;4538
733;4539
734;4540
736;4541
737;4542
737;4543
737;4544
735;4545
735;4546
734;4547
734;4548
734;4549
734;4550
738;4551
739;4552
741;4553
743;4554
747;4555
749;4556
754;4557
756;4558
757;4559
757;4560
757;4561
756;4562
752;4563
748;4564
745;4565
741;4566
737;4567
735;4568
731;4569
731;4570
730;4571
731;4572
731;4573
732;4574
734;4575
737;4576
739;4577
741;4578
743;4579
745;4580
747;4581
749;4582
750;4583
752;4584
754;4585
756;4586
758;4587
762;4588
762;4589
762;4590
760;4591
758;4592
753;4593
746;4594
744;4595
743;4596
742;4597
743;4598
742;4599
744;4600
745;4601
745;4602
744;4603
742;4604
741;4605
741;4606
744;4607
745;4608
747;4609
748;4610
749;4611
751;4612
754;4613
755;4614
755;4615
756;4616
757;4617
757;4618
760;4619
760;4620
761;4621
762;4622
762;4623
762;4624
762;4625
763;4626
764;4627
764;4628
765;4629
765;4630
766;4631
767;4632
767;4633
768;4634
768;4635
768;4636
768;4637
768;4638
768;4639
768;4640
767;4641
767;4642
767;4643
766;4644
765;4645
763;4646
760;4647
757;4648
755;4649
749;4650
747;4651
745;4652
744;4653
742;4654
741;4655
738;4656
738;4657
737;4658
737;4659
737;4660
737;4661
738;4662
741;4663
742;4664
743;4665
743;4666
742;4667
743;4668
743;4669
743;4670
743;4671
744;4672
744;4673
744;4674
743;4675
739;4676
736;4677
733;4678
729;4679
726;4680
722;4681
711;4682
706;4683
702;4684
700;4685
698;4686
697;4687
695;4688
695;4689
696;4690
698;4691
701;4692
704;4693
710;4694
714;4695
718;4696
722;4697
725;4698
728;4699
730;4700
734;4701
736;4702
738;4703
740;4704
742;4705
744;4706
745;4707
743;4708
741;4709
738;4710
736;4711
735;4712
734;4713
734;4714
733;4715
733;4716
733;4717
733;4718
735;4719
736;4720
737;4721
739;4722
742;4723
745;4724
749;4725
751;4726
752;4727
751;4728
750;4729
749;4730
746;4731
745;4732
744;4733
740;4734
736;4735
734;4736
731;4737
730;4738
731;4739
732;4740
733;4741
735;4742
736;4743
739;4744
742;4745
744;4746
745;4747
746;4748
746;4749
748;4750
749;4751
749;4752
748;4753
747;4754
745;4755
742;4756
741;4757
742;4758
743;4759
744;4760
745;4761
749;4762
751;4763
754;4764
755;4765
757;4766
759;4767
762;4768
763;4769
764;4770
765;4771
767;4772
768;4773
769;4774
770;4775
772;4776
773;4777
774;4778
775;4779
776;4780
779;4781
780;4782
779;4783
776;4784
772;4785
768;4786
760;4787
757;4788
754;4789
752;4790
750;4791
749;4792
748;4793
748;4794
749;4795
750;4796
750;4797
751;4798
751;4799
750;4800
750;4801
750;4802
751;4803
751;4804
752;4805
755;4806
757;4807
759;4808
760;4809
762;4810
764;4811
769;4812
770;4813
772;4814
773;4815
773;4816
774;4817
775;4818
776;4819
776;4820
775;4821
776;4822
776;4823
776;4824
776;4825
776;4826
776;4827
776;4828
776;4829
776;4830
774;4831
771;4832
770;4833
768;4834
767;4835
766;4836
765;4837
765;4838
766;4839
766;4840
766;4841
765;4842
765;4843
764;4844
764;4845
764;4846
764;4847
763;4848
763;4849
763;4850
763;4851
763;4852
763;4853
763;4854
763;4855
763;4856
762;4857
760;4858
756;4859
751;4860
740;4861
735;4862
732;4863
730;4864
729;4865
728;4866
728;4867
727;4868
725;4869
723;4870
720;4871
719;4872
716;4873
716;4874
716;4875
716;4876
717;4877
718;4878
722;4879
724;4880
725;4881
726;4882
729;4883
731;4884
733;4885
736;4886
739;4887
741;4888
744;4889
745;4890
747;4891
750;4892
752;4893
753;4894
754;4895
756;4896
758;4897
761;4898
762;4899
762;4900
762;4901
760;4902
758;4903
753;4904
751;4905
749;4906
747;4907
746;4908
745;4909
745;4910
747;4911
748;4912
749;4913
750;4914
752;4915
754;4916
758;4917
760;4918
761;4919
763;4920
764;4921
765;4922
768;4923
769;4924
770;4925
771;4926
771;4927
772;4928
773;4929
774;4930
775;4931
775;4932
775;4933
774;4934
772;4935
771;4936
769;4937
768;4938
767;4939
765;4940
759;4941
756;4942
753;4943
750;4944
749;4945
747;4946
744;4947
743;4948
743;4949
742;4950
742;4951
742;4952
742;4953
743;4954
744;4955
745;4956
746;4957
747;4958
747;4959
746;4960
746;4961
746;4962
747;4963
747;4964
748;4965
749;4966
750;4967
750;4968
751;4969
751;4970
751;4971
751;4972
750;4973
749;4974
747;4975
746;4976
745;4977
745;4978
745;4979
746;4980
747;4981
748;4982
749;4983
748;4984
746;4985
743;4986
739;4987
737;4988
734;4989
732;4990
732;4991
732;4992
732;4993
733;4994
735;4995
736;4996
737;4997
738;4998
740;4999
742;5000
744;5001
746;5002
750;5003
752;5004
754;5005
756;5006
758;5007
760;5008
763;5009
765;5010
766;5011
767;5012
767;5013
767;5014
765;5015
764;5016
763;5017
762;5018
761;5019
759;5020
756;5021
755;5022
755;5023
754;5024
754;5025
755;5026
756;5027
757;5028
757;5029
757;5030
758;5031
758;5032
758;5033
756;5034
756;5035
755;5036
754;5037
754;5038
754;5039
754;5040
755;5041
754;5042
752;5043
748;5044
745;5045
738;5046
735;5047
734;5048
733;5049
733;5050
732;5051
733;5052
734;5053
736;5054
737;5055
739;5056
741;5057
747;5058
750;5059
752;5060
754;5061
755;5062
757;5063
759;5064
761;5065
762;5066
764;5067
765;5068
765;5069
766;5070
766;5071
766;5072
766;5073
765;5074
764;5075
763;5076
760;5077
760;5078
759;5079
759;5080
759;5081
759;5082
758;5083
758;5084
757;5085
755;5086
754;5087
753;5088
753;5089
753;5090
753;5091
752;5092
749;5093
746;5094
742;5095
737;5096
737;5097
737;5098
738;5099
739;5100
740;5101
743;5102
745;5103
747;5104
749;5105
751;5106
754;5107
757;5108
759;5109
761;5110
762;5111
763;5112
763;5113
763;5114
761;5115
760;5116
760;5117
759;5118
759;5119
758;5120
757;5121
757;5122
757;5123
756;5124
756;5125
755;5126
755;5127
755;5128
756;5129
757;5130
757;5131
757;5132
757;5133
758;5134
757;5135
757;5136
757;5137
757;5138
757;5139
757;5140
758;5141
759;5142
760;5143
761;5144
764;5145
765;5146
766;5147
768;5148
769;5149
771;5150
772;5151
773;5152
774;5153
773;5154
772;5155
768;5156
764;5157
754;5158
750;5159
747;5160
744;5161
741;5162
739;5163
736;5164
736;5165
736;5166
737;5167
738;5168
739;5169
743;5170
744;5171
746;5172
747;5173
748;5174
748;5175
748;5176
748;5177
748;5178
748;5179
748;5180
748;5181
749;5182
750;5183
751;5184
751;5185
752;5186
753;5187
756;5188
757;5189
758;5190
759;5191
759;5192
760;5193
758;5194
756;5195
756;5196
755;5197
754;5198
752;5199
750;5200
744;5201
739;5202
736;5203
733;5204
730;5205
729;5206
727;5207
727;5208
728;5209
729;5210
730;5211
732;5212
737;5213
739;5214
741;5215
743;5216
744;5217
745;5218
746;5219
747;5220
747;5221
747;5222
748;5223
749;5224
750;5225
752;5226
753;5227
754;5228
756;5229
756;5230
757;5231
758;5232
759;5233
759;5234
760;5235
760;5236
761;5237
762;5238
762;5239
763;5240
763;5241
763;5242
763;5243
763;5244
763;5245
763;5246
763;5247
762;5248
761;5249
751;5250
744;5251
737;5252
731;5253
727;5254
725;5255
724;5256
723;5257
723;5258
723;5259
724;5260
725;5261
726;5262
730;5263
732;5264
735;5265
738;5266
740;5267
743;5268
747;5269
749;5270
751;5271
752;5272
754;5273
757;5274
760;5275
762;5276
763;5277
765;5278
766;5279
768;5280
769;5281
771;5282
772;5283
773;5284
773;5285
774;5286
774;5287
775;5288
775;5289
774;5290
774;5291
774;5292
773;5293
772;5294
772;5295
771;5296
771;5297
770;5298
770;5299
770;5300
769;5301
768;5302
768;5303
767;5304
767;5305
766;5306
766;5307
766;5308
766;5309
766;5310
766;5311
766;5312
766;5313
766;5314
766;5315
767;5316
767;5317
767;5318
766;5319
765;5320
765;5321
764;5322
763;5323
763;5324
762;5325
762;5326
760;5327
759;5328
756;5329
754;5330
749;5331
747;5332
746;5333
745;5334
744;5335
744;5336
745;5337
744;5338
744;5339
743;5340
742;5341
741;5342
738;5343
733;5344
730;5345
728;5346
726;5347
725;5348
724;5349
724;5350
725;5351
726;5352
727;5353
728;5354
730;5355
733;5356
734;5357
735;5358
735;5359
735;5360
735;5361
731;5362
729;5363
727;5364
726;5365
726;5366
726;5367
727;5368
729;5369
731;5370
733;5371
734;5372
735;5373
738;5374
741;5375
742;5376
739;5377
736;5378
732;5379
728;5380
724;5381
723;5382
723;5383
723;5384
724;5385
725;5386
729;5387
732;5388
735;5389
737;5390
740;5391
743;5392
745;5393
750;5394
752;5395
754;5396
754;5397
753;5398
752;5399
750;5400
749;5401
749;5402
748;5403
748;5404
748;5405
749;5406
749;5407
750;5408
750;5409
751;5410
751;5411
751;5412
750;5413
750;5414
749;5415
749;5416
748;5417
749;5418
748;5419
749;5420
750;5421
750;5422
750;5423
750;5424
749;5425
749;5426
749;5427
749;5428
749;5429
749;5430
751;5431
752;5432
753;5433
754;5434
755;5435
756;5436
758;5437
759;5438
759;5439
759;5440
759;5441
759;5442
759;5443
759;5444
759;5445
760;5446
760;5447
760;5448
759;5449
758;5450
758;5451
756;5452
755;5453
753;5454
750;5455
748;5456
747;5457
747;5458
746;5459
747;5460
747;5461
747;5462
748;5463
748;5464
749;5465
748;5466
747;5467
745;5468
745;5469
746;5470
747;5471
748;5472
749;5473
752;5474
754;5475
755;5476
756;5477
756;5478
756;5479
757;5480
757;5481
757;5482
757;5483
756;5484
755;5485
754;5486
753;5487
752;5488
750;5489
748;5490
746;5491
745;5492
743;5493
743;5494
743;5495
744;5496
745;5497
746;5498
747;5499
747;5500
747;5501
748;5502
749;5503
748;5504
748;5505
748;5506
747;5507
747;5508
746;5509
745;5510
746;5511
747;5512
748;5513
749;5514
749;5515
749;5516
750;5517
751;5518
751;5519
751;5520
752;5521
753;5522
753;5523
755;5524
756;5525
757;5526
758;5527
759;5528
758;5529
752;5530
750;5531
749;5532
748;5533
747;5534
747;5535
747;5536
748;5537
748;5538
749;5539
750;5540
752;5541
754;5542
755;5543
757;5544
758;5545
758;5546
759;5547
760;5548
760;5549
759;5550
759;5551
760;5552
759;5553
758;5554
758;5555
756;5556
754;5557
752;5558
750;5559
747;5560
742;5561
740;5562
738;5563
737;5564
736;5565
736;5566
738;5567
738;5568
739;5569
739;5570
739;5571
740;5572
739;5573
740;5574
740;5575
740;5576
740;5577
741;5578
743;5579
744;5580
744;5581
744;5582
744;5583
744;5584
745;5585
745;5586
743;5587
742;5588
741;5589
740;5590
740;5591
741;5592
742;5593
743;5594
744;5595
745;5596
746;5597
750;5598
751;5599
752;5600
753;5601
753;5602
754;5603
755;5604
754;5605
754;5606
752;5607
751;5608
749;5609
746;5610
745;5611
744;5612
743;5613
742;5614
740;5615
739;5616
737;5617
736;5618
735;5619
735;5620
735;5621
735;5622
733;5623
731;5624
729;5625
728;5626
728;5627
728;5628
729;5629
730;5630
732;5631
735;5632
738;5633
740;5634
744;5635
746;5636
748;5637
750;5638
752;5639
754;5640
755;5641
755;5642
754;5643
753;5644
750;5645
747;5646
740;5647
738;5648
738;5649
738;5650
738;5651
739;5652
741;5653
742;5654
743;5655
744;5656
744;5657
745;5658
746;5659
748;5660
749;5661
749;5662
750;5663
749;5664
749;5665
746;5666
746;5667
745;5668
745;5669
744;5670
742;5671
736;5672
734;5673
732;5674
732;5675
732;5676
733;5677
736;5678
738;5679
740;5680
742;5681
744;5682
746;5683
749;5684
753;5685
755;5686
757;5687
759;5688
761;5689
763;5690
765;5691
764;5692
765;5693
765;5694
766;5695
766;5696
768;5697
768;5698
769;5699
770;5700
770;5701
771;5702
771;5703
770;5704
770;5705
770;5706
769;5707
768;5708
767;5709
767;5710
765;5711
763;5712
762;5713
760;5714
756;5715
754;5716
753;5717
753;5718
752;5719
752;5720
751;5721
752;5722
752;5723
753;5724
755;5725
756;5726
757;5727
757;5728
758;5729
758;5730
758;5731
759;5732
759;5733
761;5734
761;5735
762;5736
762;5737
762;5738
760;5739
751;5740
746;5741
741;5742
734;5743
727;5744
718;5745
704;5746
698;5747
695;5748
692;5749
691;5750
691;5751
694;5752
697;5753
700;5754
704;5755
708;5756
713;5757
717;5758
725;5759
730;5760
734;5761
738;5762
742;5763
745;5764
752;5765
754;5766
756;5767
758;5768
758;5769
756;5770
753;5771
751;5772
751;5773
750;5774
749;5775
748;5776
747;5777
747;5778
747;5779
748;5780
749;5781
750;5782
753;5783
755;5784
757;5785
759;5786
761;5787
763;5788
764;5789
766;5790
767;5791
767;5792
768;5793
768;5794
769;5795
770;5796
771;5797
771;5798
770;5799
769;5800
767;5801
766;5802
765;5803
765;5804
764;5805
762;5806
759;5807
750;5808
747;5809
745;5810
744;5811
743;5812
743;5813
743;5814
743;5815
744;5816
745;5817
746;5818
748;5819
749;5820
750;5821
751;5822
751;5823
752;5824
752;5825
751;5826
748;5827
746;5828
745;5829
743;5830
742;5831
741;5832
740;5833
740;5834
740;5835
741;5836
742;5837
742;5838
745;5839
747;5840
748;5841
750;5842
752;5843
754;5844
756;5845
758;5846
759;5847
760;5848
760;5849
761;5850
762;5851
762;5852
762;5853
762;5854
762;5855
762;5856
761;5857
761;5858
761;5859
761;5860
761;5861
762;5862
762;5863
761;5864
761;5865
762;5866
762;5867
763;5868
763;5869
764;5870
765;5871
765;5872
765;5873
765;5874
765;5875
765;5876
765;5877
764;5878
763;5879
762;5880
761;5881
760;5882
759;5883
758;5884
757;5885
757;5886
756;5887
755;5888
755;5889
755;5890
754;5891
751;5892
747;5893
738;5894
732;5895
726;5896
720;5897
715;5898
712;5899
708;5900
703;5901
701;5902
701;5903
701;5904
703;5905
704;5906
708;5907
711;5908
713;5909
717;5910
719;5911
722;5912
728;5913
730;5914
733;5915
736;5916
738;5917
741;5918
744;5919
744;5920
743;5921
743;5922
744;5923
745;5924
746;5925
749;5926
751;5927
751;5928
752;5929
753;5930
754;5931
755;5932
755;5933
756;5934
756;5935
755;5936
756;5937
756;5938
756;5939
756;5940
756;5941
756;5942
755;5943
756;5944
755;5945
756;5946
756;5947
757;5948
757;5949
759;5950
759;5951
758;5952
756;5953
752;5954
747;5955
737;5956
733;5957
731;5958
729;5959
728;5960
728;5961
728;5962
729;5963
730;5964
732;5965
734;5966
735;5967
737;5968
740;5969
741;5970
742;5971
743;5972
744;5973
745;5974
746;5975
747;5976
748;5977
748;5978
748;5979
748;5980
747;5981
747;5982
747;5983
747;5984
747;5985
745;5986
738;5987
735;5988
732;5989
729;5990
727;5991
725;5992
724;5993
724;5994
725;5995
726;5996
727;5997
728;5998
730;5999
732;6000
734;6001
736;6002
737;6003
738;6004
740;6005
743;6006
744;6007
746;6008
748;6009
749;6010
751;6011
755;6012
757;6013
758;6014
759;6015
759;6016
757;6017
756;6018
751;6019
747;6020
743;6021
739;6022
736;6023
734;6024
731;6025
730;6026
730;6027
731;6028
733;6029
735;6030
739;6031
741;6032
742;6033
744;6034
745;6035
747;6036
749;6037
750;6038
751;6039
752;6040
752;6041
753;6042
752;6043
751;6044
751;6045
750;6046
749;6047
748;6048
748;6049
747;6050
747;6051
747;6052
748;6053
748;6054
750;6055
751;6056
752;6057
752;6058
752;6059
752;6060
752;6061
750;6062
750;6063
749;6064
749;6065
750;6066
750;6067
750;6068
751;6069
752;6070
753;6071
753;6072
754;6073
755;6074
755;6075
756;6076
756;6077
757;6078
757;6079
758;6080
758;6081
758;6082
759;6083
759;6084
759;6085
760;6086
760;6087
760;6088
760;6089
760;6090
760;6091
761;6092
761;6093
761;6094
761;6095
760;6096
760;6097
759;6098
757;6099
755;6100
752;6101
748;6102
745;6103
741;6104
739;6105
736;6106
730;6107
723;6108
717;6109
711;6110
704;6111
703;6112
701;6113
701;6114
700;6115
701;6116
704;6117
707;6118
711;6119
716;6120
720;6121
724;6122
729;6123
730;6124
731;6125
732;6126
732;6127
732;6128
732;6129
733;6130
734;6131
736;6132
737;6133
740;6134
743;6135
744;6136
746;6137
747;6138
747;6139
747;6140
747;6141
745;6142
745;6143
745;6144
745;6145
745;6146
745;6147
743;6148
742;6149
741;6150
739;6151
738;6152
738;6153
736;6154
735;6155
735;6156
735;6157
734;6158
732;6159
729;6160
728;6161
728;6162
727;6163
728;6164
728;6165
729;6166
732;6167
733;6168
734;6169
735;6170
736;6171
736;6172
738;6173
739;6174
740;6175
741;6176
742;6177
744;6178
747;6179
748;6180
750;6181
751;6182
750;6183
748;6184
740;6185
735;6186
730;6187
726;6188
724;6189
721;6190
718;6191
718;6192
718;6193
719;6194
719;6195
721;6196
724;6197
726;6198
728;6199
731;6200
733;6201
736;6202
739;6203
744;6204
746;6205
746;6206
746;6207
744;6208
739;6209
730;6210
727;6211
724;6212
723;6213
723;6214
723;6215
724;6216
725;6217
726;6218
728;6219
731;6220
734;6221
740;6222
742;6223
745;6224
747;6225
749;6226
750;6227
751;6228
752;6229
754;6230
755;6231
754;6232
753;6233
752;6234
747;6235
744;6236
740;6237
736;6238
733;6239
730;6240
725;6241
723;6242
723;6243
723;6244
724;6245
726;6246
729;6247
730;6248
732;6249
734;6250
736;6251
738;6252
742;6253
744;6254
745;6255
747;6256
748;6257
749;6258
750;6259
751;6260
751;6261
751;6262
752;6263
753;6264
754;6265
756;6266
757;6267
757;6268
758;6269
757;6270
756;6271
752;6272
750;6273
749;6274
747;6275
745;6276
743;6277
740;6278
738;6279
736;6280
733;6281
731;6282
729;6283
726;6284
726;6285
725;6286
723;6287
719;6288
716;6289
714;6290
714;6291
716;6292
717;6293
718;6294
720;6295
720;6296
722;6297
724;6298
725;6299
727;6300
729;6301
731;6302
735;6303
736;6304
738;6305
740;6306
742;6307
743;6308
746;6309
747;6310
748;6311
748;6312
748;6313
747;6314
747;6315
747;6316
746;6317
747;6318
748;6319
749;6320
751;6321
754;6322
755;6323
756;6324
756;6325
757;6326
757;6327
756;6328
756;6329
755;6330
753;6331
752;6332
751;6333
751;6334
751;6335
752;6336
751;6337
750;6338
749;6339
747;6340
746;6341
746;6342
745;6343
745;6344
745;6345
747;6346
748;6347
749;6348
750;6349
752;6350
754;6351
757;6352
759;6353
760;6354
760;6355
759;6356
757;6357
756;6358
754;6359
753;6360
753;6361
752;6362
752;6363
752;6364
750;6365
749;6366
747;6367
746;6368
745;6369
745;6370
743;6371
743;6372
743;6373
742;6374
741;6375
739;6376
732;6377
728;6378
725;6379
721;6380
717;6381
712;6382
709;6383
707;6384
707;6385
708;6386
709;6387
711;6388
714;6389
718;6390
720;6391
721;6392
723;6393
725;6394
727;6395
733;6396
736;6397
738;6398
740;6399
743;6400
744;6401
748;6402
750;6403
752;6404
754;6405
755;6406
756;6407
757;6408
759;6409
760;6410
761;6411
762;6412
763;6413
764;6414
765;6415
767;6416
768;6417
769;6418
770;6419
771;6420
771;6421
771;6422
771;6423
770;6424
770;6425
770;6426
769;6427
768;6428
765;6429
761;6430
757;6431
754;6432
749;6433
747;6434
745;6435
743;6436
742;6437
740;6438
739;6439
739;6440
740;6441
741;6442
742;6443
744;6444
746;6445
750;6446
752;6447
755;6448
756;6449
758;6450
760;6451
763;6452
764;6453
766;6454
767;6455
768;6456
769;6457
769;6458
769;6459
768;6460
767;6461
765;6462
763;6463
757;6464
753;6465
750;6466
746;6467
744;6468
741;6469
738;6470
737;6471
737;6472
737;6473
737;6474
738;6475
740;6476
743;6477
745;6478
747;6479
748;6480
749;6481
748;6482
745;6483
744;6484
744;6485
742;6486
741;6487
741;6488
739;6489
739;6490
737;6491
734;6492
731;6493
728;6494
725;6495
725;6496
726;6497
728;6498
729;6499
732;6500
736;6501
739;6502
742;6503
745;6504
749;6505
751;6506
753;6507
756;6508
756;6509
757;6510
756;6511
755;6512
753;6513
750;6514
749;6515
748;6516
746;6517
743;6518
740;6519
736;6520
734;6521
734;6522
734;6523
734;6524
735;6525
734;6526
734;6527
733;6528
733;6529
732;6530
732;6531
732;6532
731;6533
731;6534
731;6535
732;6536
734;6537
736;6538
740;6539
742;6540
744;6541
746;6542
747;6543
749;6544
752;6545
752;6546
751;6547
750;6548
750;6549
749;6550
750;6551
750;6552
751;6553
752;6554
754;6555
754;6556
754;6557
754;6558
753;6559
753;6560
752;6561
752;6562
751;6563
752;6564
752;6565
753;6566
753;6567
754;6568
755;6569
758;6570
760;6571
761;6572
762;6573
763;6574
764;6575
764;6576
764;6577
763;6578
763;6579
763;6580
763;6581
763;6582
764;6583
764;6584
764;6585
765;6586
765;6587
766;6588
768;6589
768;6590
768;6591
767;6592
765;6593
762;6594
753;6595
750;6596
747;6597
744;6598
741;6599
740;6600
737;6601
736;6602
736;6603
734;6604
733;6605
732;6606
729;6607
729;6608
728;6609
728;6610
729;6611
731;6612
735;6613
736;6614
738;6615
739;6616
740;6617
741;6618
742;6619
743;6620
742;6621
741;6622
739;6623
739;6624
739;6625
741;6626
742;6627
744;6628
746;6629
747;6630
749;6631
752;6632
753;6633
752;6634
749;6635
745;6636
742;6637
736;6638
734;6639
733;6640
732;6641
733;6642
733;6643
733;6644
734;6645
735;6646
736;6647
738;6648
739;6649
742;6650
744;6651
745;6652
747;6653
748;6654
748;6655
749;6656
753;6657
754;6658
756;6659
757;6660
758;6661
758;6662
757;6663
758;6664
757;6665
756;6666
754;6667
753;6668
746;6669
742;6670
740;6671
738;6672
736;6673
734;6674
731;6675
729;6676
727;6677
724;6678
722;6679
720;6680
719;6681
714;6682
712;6683
709;6684
708;6685
707;6686
706;6687
708;6688
709;6689
710;6690
711;6691
712;6692
713;6693
718;6694
721;6695
724;6696
728;6697
731;6698
734;6699
740;6700
742;6701
744;6702
745;6703
745;6704
746;6705
748;6706
749;6707
750;6708
751;6709
752;6710
752;6711
754;6712
756;6713
757;6714
758;6715
759;6716
760;6717
761;6718
760;6719
760;6720
760;6721
760;6722
760;6723
760;6724
759;6725
759;6726
759;6727
759;6728
760;6729
760;6730
761;6731
761;6732
759;6733
756;6734
753;6735
750;6736
747;6737
747;6738
747;6739
748;6740
748;6741
749;6742
749;6743
750;6744
750;6745
752;6746
753;6747
755;6748
756;6749
758;6750
759;6751
760;6752
760;6753
760;6754
758;6755
755;6756
753;6757
751;6758
748;6759
745;6760
743;6761
739;6762
738;6763
738;6764
738;6765
738;6766
740;6767
743;6768
745;6769
747;6770
749;6771
750;6772
751;6773
752;6774
754;6775
755;6776
756;6777
757;6778
757;6779
757;6780
758;6781
759;6782
759;6783
758;6784
756;6785
755;6786
749;6787
745;6788
740;6789
735;6790
732;6791
730;6792
728;6793
728;6794
728;6795
728;6796
729;6797
730;6798
732;6799
737;6800
739;6801
740;6802
741;6803
742;6804
743;6805
742;6806
742;6807
742;6808
741;6809
739;6810
736;6811
732;6812
731;6813
731;6814
731;6815
732;6816
733;6817
735;6818
737;6819
738;6820
739;6821
739;6822
740;6823
741;6824
743;6825
744;6826
746;6827
748;6828
750;6829
752;6830
754;6831
756;6832
758;6833
759;6834
760;6835
761;6836
761;6837
760;6838
759;6839
757;6840
755;6841
753;6842
749;6843
748;6844
747;6845
746;6846
746;6847
746;6848
746;6849
746;6850
747;6851
749;6852
749;6853
751;6854
751;6855
750;6856
748;6857
745;6858
742;6859
740;6860
739;6861
739;6862
740;6863
741;6864
742;6865
744;6866
745;6867
748;6868
750;6869
752;6870
754;6871
756;6872
758;6873
761;6874
762;6875
763;6876
764;6877
764;6878
766;6879
768;6880
769;6881
770;6882
770;6883
770;6884
769;6885
767;6886
759;6887
755;6888
752;6889
750;6890
748;6891
747;6892
746;6893
746;6894
747;6895
748;6896
749;6897
751;6898
754;6899
755;6900
757;6901
759;6902
760;6903
762;6904
763;6905
763;6906
764;6907
764;6908
763;6909
761;6910
758;6911
750;6912
747;6913
743;6914
739;6915
736;6916
733;6917
729;6918
728;6919
726;6920
725;6921
724;6922
723;6923
722;6924
723;6925
723;6926
724;6927
725;6928
726;6929
728;6930
730;6931
732;6932
734;6933
735;6934
737;6935
740;6936
742;6937
744;6938
746;6939
747;6940
748;6941
749;6942
750;6943
749;6944
748;6945
746;6946
745;6947
743;6948
739;6949
737;6950
733;6951
730;6952
729;6953
727;6954
727;6955
727;6956
728;6957
729;6958
729;6959
727;6960
726;6961
727;6962
728;6963
730;6964
732;6965
735;6966
737;6967
742;6968
744;6969
746;6970
748;6971
749;6972
751;6973
755;6974
757;6975
759;6976
760;6977
760;6978
760;6979
755;6980
750;6981
744;6982
737;6983
731;6984
725;6985
717;6986
715;6987
714;6988
714;6989
714;6990
716;6991
721;6992
724;6993
728;6994
732;6995
736;6996
740;6997
744;6998
750;6999
752;7000
754;7001
756;7002
758;7003
761;7004
764;7005
765;7006
767;7007
768;7008
769;7009
770;7010
771;7011
771;7012
771;7013
770;7014
770;7015
769;7016
769;7017
768;7018
768;7019
768;7020
767;7021
767;7022
765;7023
762;7024
760;7025
759;7026
757;7027
756;7028
755;7029
752;7030
751;7031
750;7032
749;7033
748;7034
748;7035
749;7036
749;7037
750;7038
750;7039
751;7040
752;7041
753;7042
753;7043
752;7044
752;7045
751;7046
750;7047
748;7048
748;7049
747;7050
746;7051
745;7052
744;7053
742;7054
742;7055
741;7056
739;7057
737;7058
736;7059
735;7060
735;7061
736;7062
737;7063
738;7064
740;7065
742;7066
746;7067
747;7068
748;7069
750;7070
751;7071
753;7072
756;7073
758;7074
759;7075
760;7076
760;7077
758;7078
749;7079
744;7080
738;7081
732;7082
725;7083
719;7084
711;7085
709;7086
708;7087
708;7088
709;7089
711;7090
717;7091
720;7092
724;7093
727;7094
730;7095
733;7096
736;7097
737;7098
738;7099
738;7100
739;7101
738;7102
739;7103
740;7104
740;7105
739;7106
738;7107
736;7108
735;7109
733;7110
733;7111
733;7112
733;7113
734;7114
735;7115
736;7116
736;7117
736;7118
737;7119
738;7120
739;7121
741;7122
742;7123
743;7124
744;7125
745;7126
745;7127
745;7128
744;7129
745;7130
745;7131
747;7132
748;7133
748;7134
749;7135
749;7136
749;7137
748;7138
749;7139
749;7140
749;7141
749;7142
749;7143
750;7144
750;7145
751;7146
754;7147
754;7148
755;7149
756;7150
756;7151
755;7152
754;7153
753;7154
752;7155
750;7156
749;7157
748;7158
747;7159
747;7160
747;7161
747;7162
747;7163
747;7164
749;7165
750;7166
751;7167
752;7168
753;7169
753;7170
754;7171
754;7172
754;7173
753;7174
753;7175
753;7176
753;7177
753;7178
753;7179
754;7180
755;7181
755;7182
755;7183
755;7184
756;7185
757;7186
757;7187
758;7188
758;7189
760;7190
761;7191
762;7192
762;7193
762;7194
760;7195
754;7196
751;7197
748;7198
744;7199
740;7200
737;7201
732;7202
730;7203
727;7204
724;7205
720;7206
718;7207
714;7208
714;7209
715;7210
716;7211
717;7212
719;7213
723;7214
725;7215
727;7216
729;7217
731;7218
733;7219
736;7220
741;7221
742;7222
744;7223
744;7224
744;7225
742;7226
738;7227
735;7228
731;7229
727;7230
723;7231
721;7232
717;7233
717;7234
716;7235
717;7236
718;7237
720;7238
724;7239
726;7240
729;7241
732;7242
735;7243
738;7244
744;7245
747;7246
749;7247
752;7248
754;7249
756;7250
758;7251
758;7252
757;7253
757;7254
755;7255
755;7256
755;7257
754;7258
753;7259
751;7260
750;7261
748;7262
746;7263
743;7264
742;7265
743;7266
743;7267
744;7268
744;7269
746;7270
746;7271
747;7272
748;7273
749;7274
750;7275
752;7276
753;7277
753;7278
753;7279
754;7280
753;7281
754;7282
753;7283
751;7284
748;7285
745;7286
742;7287
741;7288
740;7289
740;7290
741;7291
742;7292
743;7293
744;7294
747;7295
748;7296
750;7297
751;7298
753;7299
754;7300
756;7301
757;7302
757;7303
757;7304
757;7305
757;7306
757;7307
757;7308
758;7309
758;7310
757;7311
757;7312
755;7313
754;7314
753;7315
752;7316
751;7317
751;7318
751;7319
752;7320
753;7321
754;7322
755;7323
756;7324
757;7325
758;7326
760;7327
761;7328
762;7329
763;7330
764;7331
765;7332
765;7333
765;7334
765;7335
765;7336
764;7337
761;7338
759;7339
757;7340
755;7341
751;7342
746;7343
738;7344
735;7345
734;7346
732;7347
730;7348
728;7349
723;7350
721;7351
719;7352
718;7353
718;7354
717;7355
717;7356
719;7357
720;7358
722;7359
723;7360
725;7361
727;7362
731;7363
733;7364
736;7365
739;7366
742;7367
744;7368
745;7369
743;7370
741;7371
739;7372
736;7373
732;7374
723;7375
720;7376
718;7377
716;7378
716;7379
717;7380
718;7381
723;7382
725;7383
727;7384
729;7385
731;7386
734;7387
737;7388
738;7389
738;7390
738;7391
738;7392
737;7393
735;7394
735;7395
735;7396
735;7397
735;7398
735;7399
735;7400
735;7401
735;7402
735;7403
734;7404
735;7405
736;7406
737;7407
738;7408
739;7409
741;7410
743;7411
745;7412
748;7413
749;7414
750;7415
751;7416
752;7417
753;7418
755;7419
755;7420
756;7421
757;7422
758;7423
759;7424
761;7425
761;7426
761;7427
761;7428
762;7429
761;7430
761;7431
761;7432
761;7433
760;7434
760;7435
761;7436
763;7437
763;7438
763;7439
763;7440
762;7441
760;7442
756;7443
755;7444
753;7445
751;7446
750;7447
748;7448
746;7449
742;7450
741;7451
740;7452
739;7453
738;7454
738;7455
734;7456
732;7457
731;7458
730;7459
729;7460
730;7461
730;7462
730;7463
729;7464
728;7465
728;7466
727;7467
724;7468
722;7469
721;7470
720;7471
719;7472
720;7473
721;7474
721;7475
722;7476
724;7477
727;7478
729;7479
732;7480
737;7481
740;7482
742;7483
744;7484
747;7485
748;7486
748;7487
748;7488
747;7489
744;7490
742;7491
740;7492
738;7493
738;7494
738;7495
740;7496
741;7497
742;7498
743;7499
747;7500
749;7501
751;7502
752;7503
754;7504
755;7505
758;7506
759;7507
760;7508
761;7509
762;7510
763;7511
763;7512
761;7513
761;7514
759;7515
758;7516
755;7517
751;7518
749;7519
747;7520
746;7521
746;7522
745;7523
745;7524
745;7525
745;7526
745;7527
745;7528
745;7529
746;7530
747;7531
747;7532
748;7533
748;7534
748;7535
749;7536
751;7537
751;7538
751;7539
751;7540
750;7541
749;7542
747;7543
746;7544
745;7545
744;7546
744;7547
744;7548
744;7549
744;7550
744;7551
742;7552
739;7553
735;7554
723;7555
716;7556
711;7557
706;7558
703;7559
701;7560
699;7561
700;7562
701;7563
703;7564
706;7565
710;7566
714;7567
723;7568
728;7569
733;7570
738;7571
741;7572
742;7573
744;7574
744;7575
745;7576
745;7577
745;7578
746;7579
748;7580
749;7581
751;7582
752;7583
754;7584
756;7585
757;7586
759;7587
760;7588
760;7589
761;7590
761;7591
762;7592
762;7593
762;7594
760;7595
759;7596
758;7597
756;7598
752;7599
751;7600
749;7601
748;7602
747;7603
745;7604
744;7605
745;7606
745;7607
744;7608
744;7609
743;7610
742;7611
742;7612
742;7613
743;7614
744;7615
745;7616
747;7617
749;7618
750;7619
752;7620
753;7621
754;7622
756;7623
757;7624
758;7625
759;7626
759;7627
761;7628
762;7629
763;7630
763;7631
763;7632
763;7633
763;7634
763;7635
761;7636
758;7637
755;7638
750;7639
747;7640
743;7641
735;7642
732;7643
729;7644
728;7645
727;7646
727;7647
727;7648
728;7649
730;7650
732;7651
734;7652
736;7653
738;7654
743;7655
747;7656
749;7657
750;7658
751;7659
752;7660
752;7661
751;7662
748;7663
744;7664
741;7665
739;7666
734;7667
733;7668
731;7669
730;7670
730;7671
730;7672
732;7673
734;7674
737;7675
740;7676
743;7677
745;7678
748;7679
754;7680
756;7681
758;7682
760;7683
762;7684
763;7685
765;7686
765;7687
765;7688
765;7689
764;7690
760;7691
749;7692
744;7693
739;7694
735;7695
731;7696
727;7697
722;7698
720;7699
718;7700
718;7701
718;7702
718;7703
721;7704
723;7705
725;7706
728;7707
731;7708
733;7709
736;7710
739;7711
741;7712
743;7713
744;7714
746;7715
747;7716
749;7717
750;7718
750;7719
749;7720
749;7721
748;7722
747;7723
746;7724
746;7725
745;7726
745;7727
745;7728
745;7729
744;7730
743;7731
742;7732
741;7733
739;7734
737;7735
732;7736
730;7737
728;7738
728;7739
727;7740
727;7741
725;7742
722;7743
719;7744
716;7745
713;7746
712;7747
710;7748
709;7749
710;7750
711;7751
712;7752
714;7753
719;7754
723;7755
726;7756
729;7757
732;7758
735;7759
741;7760
743;7761
745;7762
747;7763
748;7764
750;7765
752;7766
755;7767
757;7768
759;7769
760;7770
762;7771
762;7772
762;7773
762;7774
761;7775
759;7776
757;7777
755;7778
754;7779
754;7780
755;7781
755;7782
756;7783
756;7784
756;7785
757;7786
757;7787
758;7788
759;7789
759;7790
760;7791
761;7792
761;7793
762;7794
762;7795
762;7796
763;7797
764;7798
765;7799
766;7800
767;7801
768;7802
768;7803
767;7804
766;7805
764;7806
761;7807
757;7808
752;7809
740;7810
735;7811
731;7812
727;7813
725;7814
723;7815
722;7816
722;7817
722;7818
722;7819
722;7820
722;7821
721;7822
720;7823
719;7824
719;7825
720;7826
720;7827
723;7828
724;7829
726;7830
728;7831
730;7832
733;7833
736;7834
742;7835
745;7836
749;7837
751;7838
754;7839
757;7840
761;7841
764;7842
766;7843
768;7844
769;7845
771;7846
772;7847
772;7848
772;7849
772;7850
771;7851
768;7852
764;7853
763;7854
761;7855
760;7856
760;7857
759;7858
760;7859
760;7860
761;7861
761;7862
762;7863
763;7864
764;7865
766;7866
767;7867
768;7868
769;7869
769;7870
770;7871
770;7872
769;7873
768;7874
766;7875
763;7876
760;7877
754;7878
751;7879
748;7880
745;7881
742;7882
741;7883
739;7884
737;7885
736;7886
735;7887
733;7888
731;7889
729;7890
726;7891
726;7892
725;7893
724;7894
724;7895
724;7896
723;7897
723;7898
722;7899
723;7900
723;7901
724;7902
724;7903
725;7904
725;7905
725;7906
726;7907
728;7908
729;7909
734;7910
736;7911
738;7912
740;7913
742;7914
744;7915
749;7916
751;7917
752;7918
754;7919
754;7920
755;7921
753;7922
751;7923
749;7924
747;7925
746;7926
744;7927
743;7928
743;7929
743;7930
744;7931
744;7932
745;7933
748;7934
749;7935
750;7936
752;7937
753;7938
755;7939
757;7940
758;7941
760;7942
760;7943
761;7944
763;7945
764;7946
766;7947
766;7948
766;7949
766;7950
765;7951
764;7952
762;7953
758;7954
754;7955
750;7956
747;7957
744;7958
737;7959
733;7960
730;7961
727;7962
725;7963
723;7964
722;7965
723;7966
722;7967
722;7968
722;7969
723;7970
724;7971
728;7972
730;7973
732;7974
733;7975
736;7976
738;7977
744;7978
745;7979
748;7980
749;7981
752;7982
755;7983
758;7984
760;7985
761;7986
763;7987
764;7988
765;7989
766;7990
766;7991
767;7992
767;7993
768;7994
768;7995
768;7996
769;7997
768;7998
768;7999
766;8000
763;8001
759;8002
751;8003
747;8004
743;8005
738;8006
733;8007
728;8008
717;8009
712;8010
707;8011
704;8012
701;8013
700;8014
701;8015
703;8016
705;8017
708;8018
711;8019
714;8020
721;8021
724;8022
728;8023
731;8024
735;8025
739;8026
742;8027
748;8028
751;8029
753;8030
755;8031
756;8032
758;8033
760;8034
761;8035
761;8036
762;8037
763;8038
763;8039
761;8040
758;8041
756;8042
753;8043
750;8044
747;8045
744;8046
742;8047
742;8048
742;8049
742;8050
742;8051
743;8052
744;8053
744;8054
744;8055
744;8056
744;8057
743;8058
743;8059
742;8060
742;8061
742;8062
743;8063
743;8064
746;8065
747;8066
748;8067
750;8068
751;8069
752;8070
754;8071
755;8072
755;8073
755;8074
754;8075
751;8076
747;8077
745;8078
743;8079
739;8080
735;8081
731;8082
727;8083
727;8084
727;8085
726;8086
726;8087
725;8088
726;8089
728;8090
731;8091
733;8092
736;8093
739;8094
742;8095
748;8096
749;8097
750;8098
750;8099
749;8100
749;8101
748;8102
746;8103
745;8104
743;8105
741;8106
739;8107
737;8108
737;8109
738;8110
738;8111
738;8112
738;8113
741;8114
742;8115
744;8116
746;8117
747;8118
749;8119
751;8120
754;8121
755;8122
757;8123
757;8124
756;8125
755;8126
754;8127
753;8128
751;8129
750;8130
748;8131
745;8132
737;8133
733;8134
730;8135
727;8136
725;8137
722;8138
720;8139
719;8140
719;8141
718;8142
719;8143
720;8144
723;8145
726;8146
728;8147
731;8148
733;8149
734;8150
736;8151
739;8152
740;8153
742;8154
744;8155
746;8156
748;8157
750;8158
751;8159
753;8160
754;8161
754;8162
755;8163
756;8164
757;8165
758;8166
759;8167
760;8168
760;8169
761;8170
762;8171
762;8172
763;8173
763;8174
764;8175
764;8176
765;8177
764;8178
762;8179
758;8180
753;8181
747;8182
737;8183
734;8184
730;8185
727;8186
724;8187
721;8188
716;8189
714;8190
713;8191
714;8192
715;8193
716;8194
720;8195
722;8196
724;8197
726;8198
729;8199
731;8200
732;8201
736;8202
738;8203
740;8204
742;8205
745;8206
747;8207
751;8208
753;8209
755;8210
756;8211
756;8212
757;8213
758;8214
758;8215
756;8216
755;8217
753;8218
753;8219
752;8220
751;8221
751;8222
750;8223
750;8224
750;8225
750;8226
751;8227
752;8228
753;8229
754;8230
755;8231
755;8232
747;8233
742;8234
738;8235
734;8236
731;8237
730;8238
728;8239
728;8240
728;8241
728;8242
729;8243
730;8244
734;8245
736;8246
738;8247
740;8248
742;8249
743;8250
744;8251
745;8252
746;8253
747;8254
748;8255
749;8256
749;8257
749;8258
749;8259
747;8260
746;8261
743;8262
742;8263
740;8264
739;8265
739;8266
738;8267
738;8268
738;8269
738;8270
739;8271
739;8272
740;8273
741;8274
742;8275
745;8276
746;8277
747;8278
748;8279
749;8280
751;8281
754;8282
755;8283
757;8284
759;8285
759;8286
760;8287
761;8288
761;8289
761;8290
761;8291
760;8292
757;8293
754;8294
749;8295
748;8296
747;8297
746;8298
745;8299
745;8300
746;8301
746;8302
747;8303
748;8304
748;8305
749;8306
749;8307
749;8308
749;8309
749;8310
749;8311
749;8312
750;8313
751;8314
751;8315
751;8316
750;8317
751;8318
752;8319
753;8320
753;8321
753;8322
753;8323
752;8324
752;8325
748;8326
746;8327
743;8328
741;8329
739;8330
737;8331
733;8332
731;8333
730;8334
730;8335
730;8336
731;8337
734;8338
736;8339
738;8340
739;8341
739;8342
739;8343
739;8344
738;8345
738;8346
737;8347
736;8348
735;8349
731;8350
730;8351
728;8352
726;8353
725;8354
723;8355
722;8356
719;8357
719;8358
720;8359
720;8360
722;8361
723;8362
726;8363
727;8364
729;8365
730;8366
732;8367
734;8368
738;8369
740;8370
741;8371
743;8372
744;8373
746;8374
749;8375
750;8376
750;8377
751;8378
752;8379
753;8380
754;8381
753;8382
753;8383
752;8384
751;8385
750;8386
750;8387
748;8388
746;8389
743;8390
740;8391
737;8392
735;8393
733;8394
733;8395
734;8396
736;8397
737;8398
738;8399
740;8400
741;8401
742;8402
742;8403
743;8404
744;8405
746;8406
746;8407
746;8408
744;8409
741;8410
738;8411
735;8412
730;8413
728;8414
727;8415
727;8416
726;8417
726;8418
726;8419
726;8420
727;8421
728;8422
728;8423
729;8424
732;8425
733;8426
735;8427
736;8428
738;8429
739;8430
740;8431
743;8432
745;8433
745;8434
745;8435
744;8436
744;8437
745;8438
744;8439
744;8440
744;8441
744;8442
745;8443
745;8444
744;8445
741;8446
740;8447
737;8448
734;8449
729;8450
727;8451
724;8452
723;8453
722;8454
721;8455
721;8456
723;8457
725;8458
727;8459
728;8460
729;8461
730;8462
733;8463
735;8464
737;8465
739;8466
742;8467
743;8468
746;8469
746;8470
747;8471
748;8472
748;8473
749;8474
749;8475
750;8476
752;8477
752;8478
753;8479
754;8480
755;8481
755;8482
755;8483
756;8484
755;8485
756;8486
756;8487
756;8488
756;8489
756;8490
756;8491
756;8492
757;8493
758;8494
759;8495
759;8496
760;8497
761;8498
762;8499
763;8500
763;8501
763;8502
762;8503
761;8504
759;8505
756;8506
755;8507
754;8508
752;8509
752;8510
751;8511
751;8512
750;8513
750;8514
748;8515
746;8516
745;8517
743;8518
741;8519
739;8520
737;8521
735;8522
734;8523
733;8524
729;8525
728;8526
724;8527
720;8528
716;8529
714;8530
711;8531
711;8532
712;8533
713;8534
715;8535
717;8536
723;8537
726;8538
729;8539
732;8540
735;8541
739;8542
742;8543
749;8544
751;8545
753;8546
755;8547
757;8548
758;8549
760;8550
762;8551
762;8552
761;8553
760;8554
758;8555
753;8556
752;8557
750;8558
747;8559
745;8560
742;8561
736;8562
732;8563
728;8564
725;8565
722;8566
719;8567
714;8568
714;8569
714;8570
715;8571
716;8572
717;8573
722;8574
724;8575
727;8576
731;8577
734;8578
737;8579
743;8580
746;8581
748;8582
750;8583
751;8584
752;8585
753;8586
754;8587
754;8588
754;8589
754;8590
754;8591
753;8592
752;8593
751;8594
751;8595
751;8596
751;8597
751;8598
749;8599
746;8600
744;8601
742;8602
740;8603
738;8604
736;8605
736;8606
736;8607
736;8608
736;8609
737;8610
737;8611
739;8612
740;8613
741;8614
742;8615
743;8616
743;8617
744;8618
744;8619
743;8620
742;8621
742;8622
742;8623
742;8624
742;8625
741;8626
740;8627
740;8628
740;8629
740;8630
740;8631
740;8632
741;8633
741;8634
742;8635
743;8636
743;8637
744;8638
744;8639
742;8640
741;8641
740;8642
739;8643
739;8644
739;8645
739;8646
740;8647
741;8648
743;8649
745;8650
745;8651
746;8652
747;8653
749;8654
752;8655
753;8656
753;8657
754;8658
754;8659
754;8660
754;8661
754;8662
754;8663
754;8664
754;8665
755;8666
756;8667
757;8668
758;8669
759;8670
759;8671
760;8672
760;8673
761;8674
762;8675
762;8676
762;8677
763;8678
763;8679
763;8680
763;8681
763;8682
763;8683
763;8684
762;8685
762;8686
762;8687
761;8688
759;8689
756;8690
752;8691
740;8692
735;8693
730;8694
727;8695
724;8696
721;8697
714;8698
709;8699
705;8700
700;8701
697;8702
694;8703
691;8704
689;8705
689;8706
690;8707
691;8708
693;8709
695;8710
701;8711
704;8712
707;8713
710;8714
713;8715
716;8716
721;8717
724;8718
727;8719
728;8720
729;8721
729;8722
729;8723
729;8724
728;8725
728;8726
727;8727
728;8728
728;8729
728;8730
729;8731
730;8732
730;8733
731;8734
731;8735
732;8736
733;8737
734;8738
736;8739
738;8740
738;8741
737;8742
736;8743
736;8744
737;8745
738;8746
740;8747
742;8748
745;8749
747;8750
749;8751
751;8752
753;8753
755;8754
759;8755
761;8756
763;8757
764;8758
766;8759
767;8760
768;8761
769;8762
769;8763
769;8764
769;8765
768;8766
768;8767
768;8768
767;8769
767;8770
767;8771
766;8772
765;8773
762;8774
761;8775
760;8776
758;8777
757;8778
756;8779
754;8780
753;8781
752;8782
752;8783
751;8784
750;8785
750;8786
749;8787
748;8788
746;8789
743;8790
739;8791
733;8792
731;8793
729;8794
728;8795
728;8796
728;8797
730;8798
731;8799
732;8800
733;8801
734;8802
736;8803
737;8804
741;8805
742;8806
744;8807
745;8808
746;8809
746;8810
743;8811
741;8812
739;8813
737;8814
736;8815
735;8816
734;8817
732;8818
730;8819
728;8820
726;8821
725;8822
725;8823
724;8824
724;8825
724;8826
725;8827
726;8828
729;8829
731;8830
733;8831
735;8832
737;8833
739;8834
741;8835
744;8836
746;8837
747;8838
748;8839
749;8840
750;8841
752;8842
753;8843
754;8844
754;8845
754;8846
755;8847
755;8848
753;8849
750;8850
746;8851
743;8852
739;8853
733;8854
729;8855
726;8856
723;8857
721;8858
721;8859
721;8860
723;8861
725;8862
727;8863
729;8864
731;8865
734;8866
738;8867
740;8868
742;8869
743;8870
745;8871
747;8872
750;8873
751;8874
751;8875
751;8876
751;8877
751;8878
751;8879
750;8880
750;8881
750;8882
749;8883
749;8884
748;8885
748;8886
748;8887
747;8888
747;8889
747;8890
747;8891
747;8892
748;8893
748;8894
749;8895
750;8896
751;8897
752;8898
754;8899
755;8900
756;8901
758;8902
758;8903
759;8904
759;8905
759;8906
760;8907
760;8908
760;8909
760;8910
758;8911
756;8912
754;8913
752;8914
749;8915
744;8916
741;8917
740;8918
739;8919
739;8920
738;8921
739;8922
739;8923
738;8924
737;8925
735;8926
734;8927
734;8928
733;8929
732;8930
732;8931
732;8932
731;8933
732;8934
733;8935
735;8936
736;8937
737;8938
738;8939
739;8940
741;8941
742;8942
744;8943
745;8944
745;8945
746;8946
745;8947
745;8948
745;8949
745;8950
744;8951
744;8952
742;8953
743;8954
742;8955
743;8956
744;8957
746;8958
747;8959
748;8960
750;8961
751;8962
752;8963
753;8964
754;8965
756;8966
757;8967
758;8968
758;8969
759;8970
760;8971
760;8972
758;8973
755;8974
751;8975
746;8976
742;8977
735;8978
732;8979
730;8980
728;8981
727;8982
727;8983
726;8984
728;8985
729;8986
731;8987
733;8988
735;8989
738;8990
742;8991
745;8992
748;8993
749;8994
750;8995
751;8996
751;8997
751;8998
751;8999
750;9000
750;9001
750;9002
747;9003
746;9004
744;9005
743;9006
742;9007
741;9008
741;9009
741;9010
741;9011
741;9012
738;9013
737;9014
735;9015
734;9016
734;9017
735;9018
736;9019
737;9020
738;9021
740;9022
742;9023
744;9024
746;9025
749;9026
751;9027
751;9028
750;9029
748;9030
747;9031
745;9032
744;9033
742;9034
741;9035
741;9036
740;9037
739;9038
738;9039
738;9040
735;9041
732;9042
730;9043
728;9044
726;9045
725;9046
725;9047
725;9048
727;9049
728;9050
731;9051
733;9052
739;9053
742;9054
745;9055
748;9056
749;9057
751;9058
753;9059
754;9060
755;9061
755;9062
755;9063
756;9064
756;9065
758;9066
759;9067
758;9068
758;9069
758;9070
757;9071
756;9072
755;9073
754;9074
753;9075
752;9076
751;9077
747;9078
744;9079
742;9080
740;9081
738;9082
737;9083
734;9084
732;9085
729;9086
727;9087
725;9088
725;9089
724;9090
725;9091
726;9092
727;9093
729;9094
730;9095
731;9096
735;9097
737;9098
739;9099
741;9100
743;9101
745;9102
749;9103
750;9104
752;9105
754;9106
754;9107
755;9108
756;9109
758;9110
759;9111
759;9112
758;9113
758;9114
757;9115
757;9116
757;9117
757;9118
757;9119
758;9120
759;9121
761;9122
762;9123
763;9124
763;9125
764;9126
765;9127
766;9128
766;9129
766;9130
765;9131
765;9132
765;9133
763;9134
762;9135
762;9136
761;9137
760;9138
759;9139
757;9140
756;9141
754;9142
752;9143
750;9144
747;9145
745;9146
742;9147
741;9148
740;9149
740;9150
739;9151
739;9152
736;9153
733;9154
730;9155
728;9156
726;9157
725;9158
724;9159
724;9160
724;9161
725;9162
726;9163
727;9164
731;9165
733;9166
735;9167
736;9168
738;9169
739;9170
740;9171
741;9172
741;9173
742;9174
742;9175
743;9176
742;9177
740;9178
739;9179
737;9180
736;9181
734;9182
733;9183
728;9184
725;9185
722;9186
721;9187
720;9188
721;9189
724;9190
725;9191
726;9192
728;9193
730;9194
733;9195
737;9196
739;9197
740;9198
740;9199
739;9200
738;9201
736;9202
731;9203
729;9204
727;9205
726;9206
725;9207
725;9208
726;9209
726;9210
727;9211
728;9212
729;9213
729;9214
729;9215
728;9216
727;9217
724;9218
722;9219
720;9220
718;9221
718;9222
719;9223
720;9224
722;9225
725;9226
728;9227
734;9228
737;9229
739;9230
742;9231
744;9232
746;9233
750;9234
751;9235
753;9236
754;9237
755;9238
757;9239
758;9240
759;9241
760;9242
760;9243
761;9244
761;9245
762;9246
762;9247
762;9248
762;9249
761;9250
761;9251
760;9252
759;9253
759;9254
758;9255
758;9256
758;9257
758;9258
759;9259
759;9260
759;9261
760;9262
760;9263
760;9264
758;9265
758;9266
757;9267
757;9268
756;9269
756;9270
755;9271
754;9272
752;9273
750;9274
749;9275
748;9276
745;9277
744;9278
743;9279
742;9280
740;9281
738;9282
733;9283
732;9284
730;9285
728;9286
726;9287
725;9288
723;9289
722;9290
723;9291
723;9292
724;9293
725;9294
727;9295
730;9296
732;9297
733;9298
734;9299
734;9300
733;9301
732;9302
732;9303
733;9304
734;9305
735;9306
737;9307
740;9308
741;9309
743;9310
746;9311
747;9312
749;9313
753;9314
755;9315
756;9316
758;9317
759;9318
760;9319
761;9320
761;9321
761;9322
761;9323
760;9324
758;9325
755;9326
745;9327
739;9328
734;9329
731;9330
728;9331
726;9332
725;9333
724;9334
724;9335
724;9336
725;9337
725;9338
727;9339
727;9340
728;9341
729;9342
729;9343
729;9344
729;9345
728;9346
727;9347
727;9348
727;9349
727;9350
728;9351
729;9352
729;9353
730;9354
731;9355
732;9356
733;9357
734;9358
734;9359
734;9360
735;9361
735;9362
736;9363
738;9364
739;9365
741;9366
743;9367
744;9368
746;9369
748;9370
751;9371
754;9372
755;9373
757;9374
757;9375
757;9376
756;9377
755;9378
753;9379
752;9380
751;9381
750;9382
748;9383
747;9384
747;9385
747;9386
748;9387
749;9388
751;9389
753;9390
754;9391
756;9392
758;9393
759;9394
762;9395
763;9396
763;9397
763;9398
763;9399
762;9400
761;9401
761;9402
762;9403
762;9404
763;9405
763;9406
764;9407
765;9408
766;9409
767;9410
768;9411
768;9412
769;9413
769;9414
768;9415
768;9416
767;9417
765;9418
764;9419
759;9420
755;9421
751;9422
747;9423
743;9424
740;9425
735;9426
733;9427
732;9428
732;9429
731;9430
732;9431
731;9432
728;9433
726;9434
723;9435
720;9436
717;9437
715;9438
711;9439
710;9440
710;9441
711;9442
711;9443
712;9444
714;9445
716;9446
718;9447
720;9448
722;9449
724;9450
728;9451
729;9452
731;9453
733;9454
734;9455
737;9456
741;9457
740;9458
739;9459
739;9460
739;9461
739;9462
740;9463
740;9464
740;9465
741;9466
742;9467
742;9468
743;9469
746;9470
747;9471
749;9472
750;9473
752;9474
754;9475
755;9476
755;9477
755;9478
753;9479
752;9480
752;9481
750;9482
749;9483
749;9484
748;9485
747;9486
746;9487
744;9488
741;9489
740;9490
739;9491
738;9492
737;9493
736;9494
736;9495
736;9496
737;9497
737;9498
738;9499
739;9500
741;9501
742;9502
742;9503
743;9504
743;9505
744;9506
744;9507
744;9508
745;9509
747;9510
749;9511
751;9512
754;9513
756;9514
757;9515
759;9516
760;9517
761;9518
761;9519
761;9520
762;9521
761;9522
761;9523
761;9524
762;9525
762;9526
761;9527
759;9528
757;9529
754;9530
751;9531
743;9532
741;9533
739;9534
738;9535
737;9536
735;9537
733;9538
733;9539
732;9540
733;9541
733;9542
733;9543
733;9544
734;9545
734;9546
735;9547
735;9548
736;9549
738;9550
741;9551
743;9552
744;9553
745;9554
746;9555
745;9556
743;9557
741;9558
739;9559
738;9560
736;9561
735;9562
733;9563
733;9564
733;9565
734;9566
735;9567
736;9568
736;9569
736;9570
736;9571
737;9572
737;9573
736;9574
736;9575
736;9576
737;9577
738;9578
739;9579
741;9580
743;9581
746;9582
748;9583
751;9584
753;9585
754;9586
756;9587
759;9588
761;9589
762;9590
763;9591
764;9592
765;9593
766;9594
767;9595
767;9596
767;9597
768;9598
768;9599
768;9600
769;9601
768;9602
768;9603
768;9604
767;9605
765;9606
759;9607
756;9608
753;9609
750;9610
746;9611
741;9612
731;9613
727;9614
724;9615
723;9616
723;9617
723;9618
724;9619
726;9620
728;9621
730;9622
733;9623
735;9624
741;9625
743;9626
745;9627
746;9628
747;9629
748;9630
749;9631
749;9632
749;9633
749;9634
748;9635
747;9636
747;9637
746;9638
745;9639
745;9640
744;9641
744;9642
744;9643
743;9644
743;9645
743;9646
742;9647
742;9648
741;9649
741;9650
742;9651
742;9652
743;9653
742;9654
741;9655
738;9656
735;9657
735;9658
735;9659
736;9660
736;9661
737;9662
741;9663
742;9664
744;9665
745;9666
746;9667
748;9668
749;9669
749;9670
750;9671
750;9672
750;9673
749;9674
747;9675
746;9676
744;9677
743;9678
743;9679
743;9680
744;9681
745;9682
746;9683
747;9684
748;9685
748;9686
748;9687
747;9688
746;9689
745;9690
745;9691
744;9692
743;9693
740;9694
739;9695
739;9696
739;9697
739;9698
740;9699
742;9700
743;9701
745;9702
747;9703
748;9704
749;9705
750;9706
750;9707
750;9708
750;9709
750;9710
750;9711
751;9712
752;9713
752;9714
752;9715
752;9716
752;9717
752;9718
747;9719
745;9720
743;9721
740;9722
738;9723
737;9724
734;9725
733;9726
733;9727
733;9728
733;9729
733;9730
735;9731
735;9732
736;9733
736;9734
736;9735
737;9736
740;9737
741;9738
742;9739
744;9740
746;9741
748;9742
749;9743
753;9744
755;9745
756;9746
757;9747
757;9748
759;9749
759;9750
759;9751
760;9752
760;9753
759;9754
758;9755
756;9756
756;9757
756;9758
756;9759
756;9760
756;9761
757;9762
757;9763
758;9764
759;9765
760;9766
762;9767
764;9768
764;9769
764;9770
763;9771
761;9772
759;9773
755;9774
752;9775
747;9776
740;9777
732;9778
724;9779
713;9780
710;9781
708;9782
707;9783
706;9784
707;9785
707;9786
711;9787
714;9788
717;9789
720;9790
724;9791
729;9792
736;9793
739;9794
742;9795
744;9796
746;9797
747;9798
750;9799
751;9800
753;9801
754;9802
754;9803
754;9804
752;9805
751;9806
750;9807
750;9808
749;9809
748;9810
748;9811
747;9812
747;9813
747;9814
747;9815
747;9816
747;9817
746;9818
747;9819
747;9820
747;9821
747;9822
747;9823
748;9824
749;9825
751;9826
752;9827
753;9828
753;9829
754;9830
753;9831
753;9832
753;9833
753;9834
754;9835
753;9836
751;9837
749;9838
747;9839
744;9840
742;9841
738;9842
737;9843
735;9844
734;9845
734;9846
733;9847
733;9848
733;9849
733;9850
733;9851
733;9852
734;9853
735;9854
738;9855
740;9856
742;9857
744;9858
745;9859
747;9860
747;9861
747;9862
746;9863
744;9864
741;9865
738;9866
731;9867
729;9868
728;9869
728;9870
728;9871
728;9872
731;9873
732;9874
733;9875
735;9876
735;9877
736;9878
738;9879
741;9880
742;9881
744;9882
746;9883
748;9884
749;9885
752;9886
754;9887
754;9888
755;9889
756;9890
757;9891
757;9892
757;9893
756;9894
754;9895
753;9896
751;9897
751;9898
750;9899
750;9900
750;9901
749;9902
749;9903
749;9904
749;9905
749;9906
749;9907
748;9908
747;9909
747;9910
746;9911
746;9912
746;9913
746;9914
746;9915
746;9916
747;9917
748;9918
748;9919
749;9920
750;9921
751;9922
753;9923
754;9924
755;9925
757;9926
758;9927
759;9928
761;9929
762;9930
763;9931
764;9932
765;9933
767;9934
769;9935
770;9936
770;9937
770;9938
769;9939
765;9940
755;9941
750;9942
745;9943
741;9944
738;9945
734;9946
727;9947
724;9948
721;9949
719;9950
719;9951
718;9952
717;9953
717;9954
717;9955
718;9956
719;9957
720;9958
721;9959
724;9960
727;9961
730;9962
733;9963
736;9964
738;9965
742;9966
744;9967
747;9968
749;9969
751;9970
753;9971
755;9972
756;9973
757;9974
758;9975
760;9976
761;9977
762;9978
763;9979
763;9980
764;9981
764;9982
764;9983
764;9984
759;9985
756;9986
752;9987
747;9988
742;9989
737;9990
730;9991
728;9992
726;9993
725;9994
723;9995
722;9996
722;9997
721;9998
720;9999
720;10000
719;10001
718;10002
718;10003
719;10004
720;10005
722;10006
723;10007
726;10008
728;10009
733;10010
736;10011
739;10012
742;10013
745;10014
748;10015
753;10016
756;10017
758;10018
759;10019
761;10020
762;10021
764;10022
764;10023
765;10024
766;10025
766;10026
766;10027
763;10028
761;10029
758;10030
756;10031
754;10032
752;10033
750;10034
748;10035
747;10036
747;10037
746;10038
746;10039
746;10040
745;10041
745;10042
743;10043
742;10044
739;10045
739;10046
737;10047
737;10048
736;10049
737;10050
737;10051
738;10052
739;10053
740;10054
741;10055
742;10056
744;10057
746;10058
749;10059
752;10060
754;10061
756;10062
758;10063
760;10064
762;10065
765;10066
766;10067
767;10068
767;10069
768;10070
768;10071
767;10072
766;10073
765;10074
763;10075
760;10076
758;10077
754;10078
753;10079
751;10080
750;10081
749;10082
748;10083
747;10084
747;10085
747;10086
747;10087
747;10088
747;10089
747;10090
748;10091
748;10092
748;10093
749;10094
749;10095
751;10096
752;10097
752;10098
754;10099
755;10100
756;10101
756;10102
755;10103
755;10104
754;10105
752;10106
751;10107
750;10108
749;10109
750;10110
750;10111
750;10112
750;10113
749;10114
741;10115
736;10116
733;10117
730;10118
727;10119
726;10120
723;10121
722;10122
720;10123
718;10124
715;10125
713;10126
708;10127
707;10128
707;10129
708;10130
709;10131
710;10132
714;10133
716;10134
718;10135
721;10136
725;10137
729;10138
733;10139
739;10140
741;10141
744;10142
746;10143
748;10144
749;10145
751;10146
752;10147
753;10148
754;10149
756;10150
757;10151
760;10152
760;10153
761;10154
762;10155
763;10156
764;10157
766;10158
767;10159
768;10160
769;10161
769;10162
770;10163
770;10164
771;10165
771;10166
771;10167
771;10168
770;10169
769;10170
764;10171
762;10172
759;10173
758;10174
756;10175
753;10176
747;10177
744;10178
742;10179
740;10180
738;10181
737;10182
738;10183
738;10184
739;10185
741;10186
742;10187
744;10188
748;10189
750;10190
751;10191
753;10192
754;10193
755;10194
758;10195
759;10196
759;10197
760;10198
760;10199
760;10200
760;10201
760;10202
759;10203
758;10204
757;10205
756;10206
755;10207
754;10208
754;10209
753;10210
754;10211
753;10212
755;10213
756;10214
757;10215
758;10216
759;10217
759;10218
760;10219
762;10220
763;10221
764;10222
765;10223
766;10224
766;10225
767;10226
767;10227
767;10228
767;10229
768;10230
768;10231
768;10232
769;10233
770;10234
770;10235
770;10236
770;10237
769;10238
766;10239
762;10240
755;10241
749;10242
742;10243
734;10244
720;10245
714;10246
710;10247
706;10248
703;10249
702;10250
701;10251
703;10252
705;10253
708;10254
711;10255
716;10256
720;10257
728;10258
732;10259
735;10260
738;10261
741;10262
744;10263
749;10264
750;10265
751;10266
752;10267
753;10268
754;10269
756;10270
756;10271
756;10272
756;10273
756;10274
756;10275
755;10276
755;10277
756;10278
757;10279
757;10280
758;10281
760;10282
761;10283
762;10284
763;10285
764;10286
764;10287
765;10288
765;10289
765;10290
765;10291
765;10292
764;10293
763;10294
762;10295
762;10296
761;10297
761;10298
759;10299
757;10300
753;10301
752;10302
751;10303
750;10304
750;10305
750;10306
751;10307
751;10308
752;10309
752;10310
753;10311
754;10312
756;10313
756;10314
757;10315
758;10316
759;10317
760;10318
759;10319
757;10320
752;10321
745;10322
739;10323
733;10324
728;10325
721;10326
718;10327
716;10328
715;10329
715;10330
716;10331
718;10332
720;10333
723;10334
725;10335
727;10336
729;10337
731;10338
731;10339
731;10340
730;10341
728;10342
725;10343
720;10344
720;10345
720;10346
719;10347
719;10348
719;10349
720;10350
720;10351
721;10352
722;10353
724;10354
727;10355
729;10356
736;10357
739;10358
742;10359
745;10360
747;10361
749;10362
752;10363
753;10364
755;10365
756;10366
758;10367
760;10368
761;10369
765;10370
766;10371
766;10372
765;10373
764;10374
763;10375
760;10376
759;10377
758;10378
757;10379
757;10380
756;10381
756;10382
755;10383
755;10384
754;10385
752;10386
750;10387
744;10388
742;10389
741;10390
740;10391
739;10392
739;10393
736;10394
734;10395
733;10396
732;10397
731;10398
732;10399
733;10400
735;10401
736;10402
738;10403
740;10404
742;10405
743;10406
747;10407
748;10408
748;10409
748;10410
748;10411
747;10412
743;10413
741;10414
740;10415
739;10416
738;10417
737;10418
735;10419
734;10420
733;10421
733;10422
732;10423
732;10424
732;10425
731;10426
732;10427
733;10428
734;10429
735;10430
736;10431
737;10432
737;10433
737;10434
738;10435
739;10436
740;10437
741;10438
741;10439
741;10440
742;10441
742;10442
743;10443
745;10444
747;10445
748;10446
750;10447
751;10448
753;10449
757;10450
758;10451
759;10452
760;10453
762;10454
763;10455
765;10456
765;10457
766;10458
766;10459
766;10460
766;10461
766;10462
765;10463
764;10464
762;10465
760;10466
757;10467
754;10468
748;10469
745;10470
741;10471
736;10472
732;10473
728;10474
724;10475
724;10476
724;10477
725;10478
726;10479
727;10480
729;10481
734;10482
737;10483
740;10484
743;10485
745;10486
748;10487
751;10488
752;10489
753;10490
754;10491
753;10492
752;10493
749;10494
747;10495
746;10496
745;10497
744;10498
742;10499
734;10500
729;10501
725;10502
721;10503
718;10504
715;10505
712;10506
711;10507
711;10508
711;10509
713;10510
715;10511
717;10512
723;10513
727;10514
730;10515
734;10516
737;10517
740;10518
744;10519
745;10520
746;10521
747;10522
747;10523
746;10524
744;10525
744;10526
744;10527
744;10528
743;10529
742;10530
739;10531
738;10532
737;10533
737;10534
737;10535
737;10536
738;10537
740;10538
741;10539
742;10540
744;10541
746;10542
748;10543
751;10544
752;10545
755;10546
757;10547
758;10548
760;10549
763;10550
764;10551
765;10552
766;10553
766;10554
767;10555
767;10556
768;10557
767;10558
765;10559
763;10560
761;10561
757;10562
755;10563
754;10564
753;10565
752;10566
751;10567
749;10568
749;10569
749;10570
749;10571
748;10572
747;10573
745;10574
741;10575
740;10576
739;10577
738;10578
737;10579
736;10580
733;10581
733;10582
733;10583
734;10584
735;10585
737;10586
741;10587
743;10588
745;10589
748;10590
750;10591
752;10592
754;10593
756;10594
757;10595
758;10596
759;10597
760;10598
760;10599
760;10600
759;10601
757;10602
755;10603
753;10604
752;10605
748;10606
745;10607
742;10608
739;10609
737;10610
735;10611
730;10612
727;10613
723;10614
718;10615
713;10616
709;10617
704;10618
703;10619
703;10620
704;10621
705;10622
706;10623
709;10624
712;10625
714;10626
717;10627
721;10628
725;10629
729;10630
736;10631
739;10632
741;10633
742;10634
743;10635
743;10636
745;10637
746;10638
746;10639
745;10640
745;10641
745;10642
745;10643
745;10644
746;10645
747;10646
749;10647
750;10648
751;10649
752;10650
753;10651
753;10652
754;10653
754;10654
755;10655
754;10656
755;10657
755;10658
755;10659
754;10660
753;10661
750;10662
749;10663
749;10664
749;10665
748;10666
749;10667
751;10668
751;10669
752;10670
753;10671
754;10672
754;10673
755;10674
753;10675
751;10676
749;10677
746;10678
744;10679
741;10680
740;10681
740;10682
739;10683
739;10684
739;10685
738;10686
739;10687
739;10688
740;10689
741;10690
742;10691
743;10692
746;10693
747;10694
748;10695
749;10696
750;10697
752;10698
755;10699
755;10700
756;10701
757;10702
757;10703
756;10704
751;10705
748;10706
745;10707
742;10708
738;10709
734;10710
725;10711
720;10712
715;10713
711;10714
707;10715
705;10716
704;10717
701;10718
702;10719
703;10720
704;10721
707;10722
709;10723
716;10724
719;10725
722;10726
725;10727
728;10728
732;10729
738;10730
742;10731
744;10732
747;10733
750;10734
752;10735
757;10736
759;10737
762;10738
764;10739
765;10740
766;10741
767;10742
767;10743
767;10744
767;10745
766;10746
765;10747
762;10748
751;10749
746;10750
741;10751
736;10752
733;10753
731;10754
727;10755
726;10756
726;10757
726;10758
728;10759
729;10760
735;10761
738;10762
741;10763
745;10764
748;10765
751;10766
757;10767
759;10768
761;10769
763;10770
765;10771
768;10772
771;10773
772;10774
772;10775
772;10776
771;10777
770;10778
769;10779
766;10780
765;10781
764;10782
763;10783
761;10784
759;10785
756;10786
754;10787
751;10788
747;10789
743;10790
739;10791
731;10792
728;10793
726;10794
724;10795
723;10796
723;10797
723;10798
725;10799
727;10800
729;10801
732;10802
734;10803
738;10804
744;10805
747;10806
750;10807
752;10808
754;10809
756;10810
759;10811
761;10812
761;10813
761;10814
760;10815
760;10816
757;10817
756;10818
753;10819
752;10820
748;10821
744;10822
739;10823
730;10824
727;10825
724;10826
722;10827
721;10828
719;10829
718;10830
716;10831
714;10832
713;10833
711;10834
710;10835
712;10836
713;10837
715;10838
716;10839
718;10840
719;10841
722;10842
723;10843
724;10844
726;10845
727;10846
729;10847
732;10848
735;10849
737;10850
738;10851
740;10852
741;10853
743;10854
747;10855
749;10856
751;10857
753;10858
755;10859
757;10860
761;10861
762;10862
764;10863
765;10864
767;10865
768;10866
771;10867
772;10868
773;10869
774;10870
774;10871
775;10872
776;10873
776;10874
776;10875
776;10876
776;10877
776;10878
775;10879
773;10880
772;10881
770;10882
768;10883
766;10884
764;10885
759;10886
758;10887
756;10888
755;10889
755;10890
754;10891
755;10892
756;10893
757;10894
757;10895
759;10896
760;10897
762;10898
762;10899
763;10900
763;10901
764;10902
764;10903
765;10904
766;10905
766;10906
765;10907
764;10908
763;10909
761;10910
758;10911
756;10912
753;10913
751;10914
749;10915
747;10916
746;10917
746;10918
746;10919
745;10920
745;10921
744;10922
738;10923
733;10924
729;10925
724;10926
721;10927
718;10928
715;10929
715;10930
715;10931
716;10932
717;10933
719;10934
723;10935
724;10936
723;10937
722;10938
722;10939
721;10940
720;10941
717;10942
716;10943
714;10944
715;10945
715;10946
717;10947
721;10948
724;10949
727;10950
731;10951
734;10952
737;10953
744;10954
746;10955
748;10956
750;10957
752;10958
753;10959
755;10960
756;10961
756;10962
757;10963
758;10964
759;10965
760;10966
762;10967
762;10968
763;10969
763;10970
763;10971
764;10972
764;10973
765;10974
765;10975
765;10976
764;10977
763;10978
759;10979
757;10980
755;10981
754;10982
753;10983
752;10984
751;10985
750;10986
750;10987
749;10988
749;10989
749;10990
747;10991
748;10992
748;10993
747;10994
747;10995
747;10996
747;10997
747;10998
747;10999
748;11000
749;11001
749;11002
748;11003
748;11004
746;11005
746;11006
745;11007
744;11008
742;11009
739;11010
739;11011
738;11012
738;11013
739;11014
740;11015
741;11016
742;11017
743;11018
744;11019
746;11020
747;11021
751;11022
753;11023
754;11024
755;11025
755;11026
754;11027
751;11028
750;11029
749;11030
748;11031
748;11032
748;11033
749;11034
749;11035
750;11036
751;11037
752;11038
753;11039
754;11040
756;11041
757;11042
758;11043
759;11044
759;11045
759;11046
758;11047
758;11048
757;11049
755;11050
752;11051
749;11052
741;11053
736;11054
733;11055
729;11056
727;11057
726;11058
726;11059
727;11060
728;11061
730;11062
733;11063
735;11064
741;11065
744;11066
747;11067
749;11068
752;11069
754;11070
756;11071
758;11072
759;11073
761;11074
762;11075
763;11076
763;11077
763;11078
762;11079
760;11080
758;11081
757;11082
755;11083
752;11084
751;11085
750;11086
750;11087
750;11088
749;11089
749;11090
748;11091
748;11092
748;11093
747;11094
747;11095
746;11096
744;11097
739;11098
732;11099
726;11100
719;11101
709;11102
706;11103
704;11104
702;11105
702;11106
702;11107
703;11108
707;11109
711;11110
715;11111
718;11112
721;11113
723;11114
725;11115
726;11116
727;11117
727;11118
728;11119
730;11120
732;11121
734;11122
735;11123
738;11124
740;11125
742;11126
745;11127
750;11128
752;11129
754;11130
756;11131
758;11132
760;11133
761;11134
762;11135
763;11136
764;11137
765;11138
765;11139
763;11140
762;11141
760;11142
758;11143
757;11144
755;11145
755;11146
755;11147
755;11148
755;11149
755;11150
756;11151
758;11152
759;11153
760;11154
760;11155
760;11156
759;11157
758;11158
755;11159
754;11160
752;11161
749;11162
748;11163
746;11164
743;11165
743;11166
743;11167
742;11168
742;11169
741;11170
741;11171
741;11172
742;11173
743;11174
744;11175
745;11176
748;11177
749;11178
748;11179
748;11180
748;11181
747;11182
746;11183
746;11184
745;11185
745;11186
744;11187
744;11188
743;11189
742;11190
742;11191
741;11192
742;11193
742;11194
742;11195
742;11196
741;11197
739;11198
738;11199
738;11200
737;11201
736;11202
736;11203
736;11204
737;11205
738;11206
739;11207
742;11208
743;11209
744;11210
746;11211
749;11212
751;11213
753;11214
755;11215
756;11216
757;11217
757;11218
757;11219
755;11220
754;11221
753;11222
752;11223
751;11224
751;11225
749;11226
748;11227
747;11228
746;11229
744;11230
743;11231
740;11232
737;11233
736;11234
735;11235
734;11236
733;11237
733;11238
734;11239
735;11240
736;11241
737;11242
740;11243
742;11244
746;11245
747;11246
747;11247
747;11248
747;11249
747;11250
745;11251
745;11252
744;11253
742;11254
739;11255
735;11256
727;11257
724;11258
723;11259
720;11260
718;11261
716;11262
712;11263
712;11264
713;11265
714;11266
715;11267
717;11268
720;11269
726;11270
730;11271
733;11272
736;11273
739;11274
742;11275
746;11276
748;11277
750;11278
752;11279
753;11280
754;11281
755;11282
755;11283
754;11284
753;11285
753;11286
752;11287
752;11288
752;11289
752;11290
751;11291
749;11292
748;11293
746;11294
745;11295
744;11296
744;11297
744;11298
744;11299
744;11300
744;11301
744;11302
744;11303
744;11304
745;11305
746;11306
748;11307
749;11308
750;11309
752;11310
753;11311
754;11312
754;11313
754;11314
754;11315
753;11316
751;11317
749;11318
742;11319
738;11320
733;11321
730;11322
727;11323
725;11324
725;11325
725;11326
726;11327
728;11328
730;11329
732;11330
734;11331
739;11332
742;11333
743;11334
744;11335
746;11336
747;11337
750;11338
751;11339
753;11340
754;11341
755;11342
756;11343
758;11344
759;11345
759;11346
760;11347
760;11348
761;11349
762;11350
762;11351
762;11352
761;11353
761;11354
759;11355
756;11356
753;11357
747;11358
739;11359
730;11360
722;11361
714;11362
703;11363
700;11364
699;11365
698;11366
698;11367
700;11368
705;11369
708;11370
712;11371
716;11372
721;11373
726;11374
735;11375
739;11376
742;11377
745;11378
747;11379
748;11380
753;11381
756;11382
758;11383
760;11384
762;11385
764;11386
766;11387
765;11388
765;11389
764;11390
764;11391
764;11392
764;11393
765;11394
765;11395
766;11396
766;11397
767;11398
767;11399
767;11400
764;11401
761;11402
757;11403
754;11404
751;11405
747;11406
746;11407
745;11408
745;11409
745;11410
746;11411
747;11412
749;11413
750;11414
752;11415
753;11416
754;11417
755;11418
756;11419
755;11420
755;11421
753;11422
751;11423
749;11424
745;11425
743;11426
742;11427
740;11428
739;11429
738;11430
738;11431
738;11432
738;11433
739;11434
739;11435
740;11436
740;11437
740;11438
741;11439
741;11440
741;11441
740;11442
739;11443
736;11444
733;11445
731;11446
729;11447
726;11448
725;11449
723;11450
723;11451
724;11452
725;11453
726;11454
728;11455
731;11456
733;11457
735;11458
737;11459
739;11460
741;11461
742;11462
742;11463
742;11464
743;11465
743;11466
743;11467
745;11468
746;11469
747;11470
746;11471
746;11472
746;11473
744;11474
743;11475
741;11476
739;11477
738;11478
737;11479
737;11480
738;11481
739;11482
740;11483
741;11484
743;11485
745;11486
749;11487
750;11488
751;11489
751;11490
751;11491
750;11492
746;11493
744;11494
742;11495
740;11496
737;11497
734;11498
726;11499
722;11500
719;11501
716;11502
714;11503
713;11504
712;11505
714;11506
715;11507
717;11508
719;11509
722;11510
725;11511
730;11512
733;11513
735;11514
737;11515
739;11516
740;11517
742;11518
741;11519
741;11520
741;11521
741;11522
742;11523
745;11524
747;11525
749;11526
751;11527
752;11528
754;11529
756;11530
757;11531
758;11532
759;11533
761;11534
761;11535
761;11536
762;11537
762;11538
763;11539
764;11540
764;11541
766;11542
767;11543
767;11544
768;11545
767;11546
765;11547
762;11548
751;11549
745;11550
739;11551
733;11552
729;11553
726;11554
719;11555
717;11556
715;11557
716;11558
717;11559
719;11560
720;11561
724;11562
726;11563
726;11564
727;11565
728;11566
729;11567
730;11568
732;11569
733;11570
735;11571
737;11572
739;11573
743;11574
743;11575
743;11576
742;11577
742;11578
742;11579
742;11580
741;11581
740;11582
739;11583
737;11584
736;11585
734;11586
728;11587
724;11588
719;11589
714;11590
710;11591
707;11592
704;11593
704;11594
705;11595
707;11596
709;11597
712;11598
720;11599
725;11600
729;11601
734;11602
738;11603
743;11604
750;11605
753;11606
756;11607
758;11608
760;11609
761;11610
763;11611
766;11612
768;11613
770;11614
771;11615
771;11616
772;11617
773;11618
773;11619
774;11620
774;11621
775;11622
775;11623
775;11624
774;11625
774;11626
772;11627
770;11628
766;11629
755;11630
747;11631
737;11632
727;11633
718;11634
711;11635
703;11636
701;11637
701;11638
701;11639
702;11640
704;11641
711;11642
715;11643
719;11644
725;11645
730;11646
735;11647
740;11648
748;11649
752;11650
755;11651
757;11652
758;11653
760;11654
762;11655
762;11656
762;11657
761;11658
760;11659
759;11660
754;11661
752;11662
750;11663
747;11664
745;11665
743;11666
739;11667
736;11668
730;11669
724;11670
718;11671
713;11672
706;11673
705;11674
705;11675
706;11676
708;11677
711;11678
719;11679
724;11680
729;11681
733;11682
738;11683
743;11684
750;11685
753;11686
756;11687
759;11688
761;11689
763;11690
766;11691
768;11692
770;11693
772;11694
774;11695
776;11696
777;11697
778;11698
779;11699
779;11700
779;11701
779;11702
778;11703
776;11704
774;11705
773;11706
772;11707
770;11708
768;11709
765;11710
765;11711
764;11712
764;11713
764;11714
765;11715
766;11716
768;11717
769;11718
770;11719
771;11720
772;11721
774;11722
774;11723
774;11724
774;11725
774;11726
774;11727
773;11728
773;11729
772;11730
772;11731
771;11732
771;11733
770;11734
769;11735
768;11736
766;11737
761;11738
755;11739
750;11740
738;11741
733;11742
728;11743
722;11744
716;11745
710;11746
703;11747
702;11748
701;11749
702;11750
702;11751
703;11752
707;11753
709;11754
712;11755
715;11756
719;11757
723;11758
732;11759
736;11760
740;11761
744;11762
747;11763
749;11764
755;11765
758;11766
760;11767
762;11768
764;11769
766;11770
768;11771
769;11772
769;11773
769;11774
770;11775
769;11776
769;11777
769;11778
768;11779
768;11780
768;11781
767;11782
766;11783
759;11784
755;11785
751;11786
747;11787
743;11788
739;11789
733;11790
730;11791
729;11792
729;11793
729;11794
730;11795
732;11796
733;11797
734;11798
735;11799
736;11800
737;11801
738;11802
739;11803
740;11804
741;11805
742;11806
743;11807
745;11808
749;11809
750;11810
752;11811
754;11812
756;11813
758;11814
761;11815
762;11816
763;11817
763;11818
764;11819
764;11820
762;11821
761;11822
759;11823
758;11824
756;11825
754;11826
751;11827
750;11828
749;11829
748;11830
748;11831
748;11832
749;11833
750;11834
751;11835
753;11836
754;11837
755;11838
756;11839
758;11840
759;11841
761;11842
762;11843
762;11844
762;11845
758;11846
755;11847
752;11848
750;11849
747;11850
746;11851
744;11852
743;11853
743;11854
743;11855
744;11856
745;11857
746;11858
745;11859
745;11860
744;11861
744;11862
744;11863
744;11864
740;11865
737;11866
736;11867
734;11868
733;11869
733;11870
734;11871
735;11872
735;11873
736;11874
736;11875
737;11876
739;11877
740;11878
742;11879
743;11880
745;11881
747;11882
750;11883
752;11884
753;11885
754;11886
755;11887
755;11888
755;11889
755;11890
753;11891
751;11892
748;11893
746;11894
744;11895
741;11896
737;11897
734;11898
731;11899
729;11900
728;11901
728;11902
729;11903
730;11904
732;11905
734;11906
736;11907
740;11908
743;11909
745;11910
748;11911
750;11912
752;11913
754;11914
757;11915
758;11916
759;11917
759;11918
759;11919
759;11920
759;11921
759;11922
759;11923
758;11924
758;11925
759;11926
759;11927
760;11928
761;11929
761;11930
760;11931
761;11932
760;11933
760;11934
760;11935
759;11936
757;11937
755;11938
749;11939
747;11940
745;11941
743;11942
741;11943
740;11944
739;11945
739;11946
740;11947
741;11948
742;11949
744;11950
747;11951
748;11952
750;11953
751;11954
753;11955
755;11956
757;11957
761;11958
763;11959
765;11960
766;11961
767;11962
767;11963
763;11964
759;11965
757;11966
754;11967
751;11968
748;11969
744;11970
742;11971
740;11972
738;11973
734;11974
729;11975
721;11976
718;11977
716;11978
714;11979
713;11980
713;11981
714;11982
716;11983
718;11984
720;11985
723;11986
725;11987
728;11988
734;11989
737;11990
739;11991
742;11992
745;11993
748;11994
751;11995
752;11996
754;11997
756;11998
758;11999
760;12000
761;12001
761;12002
761;12003
759;12004
758;12005
756;12006
751;12007
748;12008
746;12009
744;12010
742;12011
741;12012
741;12013
741;12014
742;12015
742;12016
744;12017
745;12018
746;12019
749;12020
752;12021
753;12022
754;12023
755;12024
757;12025
756;12026
755;12027
754;12028
750;12029
747;12030
744;12031
740;12032
740;12033
740;12034
741;12035
742;12036
742;12037
745;12038
746;12039
748;12040
750;12041
753;12042
755;12043
760;12044
761;12045
763;12046
764;12047
764;12048
764;12049
764;12050
765;12051
765;12052
765;12053
763;12054
759;12055
755;12056
742;12057
735;12058
728;12059
723;12060
719;12061
716;12062
713;12063
712;12064
712;12065
714;12066
715;12067
717;12068
723;12069
726;12070
728;12071
729;12072
731;12073
733;12074
736;12075
737;12076
739;12077
741;12078
742;12079
744;12080
745;12081
749;12082
751;12083
753;12084
754;12085
756;12086
758;12087
762;12088
763;12089
764;12090
765;12091
766;12092
766;12093
768;12094
769;12095
770;12096
771;12097
771;12098
771;12099
770;12100
767;12101
764;12102
761;12103
758;12104
755;12105
751;12106
741;12107
735;12108
731;12109
726;12110
722;12111
719;12112
716;12113
716;12114
716;12115
717;12116
719;12117
722;12118
724;12119
725;12120
727;12121
728;12122
730;12123
731;12124
735;12125
737;12126
740;12127
742;12128
744;12129
747;12130
752;12131
754;12132
756;12133
758;12134
759;12135
760;12136
760;12137
759;12138
759;12139
759;12140
758;12141
758;12142
757;12143
757;12144
757;12145
757;12146
757;12147
757;12148
758;12149
759;12150
760;12151
760;12152
760;12153
760;12154
761;12155
763;12156
763;12157
763;12158
761;12159
758;12160
754;12161
748;12162
746;12163
745;12164
743;12165
742;12166
740;12167
738;12168
737;12169
736;12170
735;12171
733;12172
732;12173
732;12174
731;12175
731;12176
731;12177
731;12178
730;12179
729;12180
729;12181
728;12182
728;12183
728;12184
729;12185
731;12186
733;12187
734;12188
736;12189
737;12190
738;12191
739;12192
738;12193
739;12194
740;12195
740;12196
742;12197
743;12198
744;12199
743;12200
742;12201
741;12202
739;12203
737;12204
736;12205
733;12206
733;12207
733;12208
733;12209
733;12210
734;12211
736;12212
738;12213
740;12214
742;12215
744;12216
746;12217
750;12218
752;12219
754;12220
756;12221
758;12222
760;12223
764;12224
766;12225
767;12226
769;12227
769;12228
770;12229
770;12230
767;12231
764;12232
761;12233
758;12234
755;12235
751;12236
743;12237
740;12238
738;12239
736;12240
734;12241
734;12242
736;12243
738;12244
740;12245
742;12246
744;12247
745;12248
749;12249
751;12250
752;12251
752;12252
753;12253
753;12254
755;12255
757;12256
758;12257
759;12258
760;12259
760;12260
761;12261
761;12262
762;12263
762;12264
763;12265
763;12266
764;12267
764;12268
764;12269
765;12270
765;12271
765;12272
765;12273
764;12274
763;12275
763;12276
762;12277
762;12278
761;12279
760;12280
759;12281
757;12282
753;12283
747;12284
741;12285
727;12286
721;12287
715;12288
710;12289
704;12290
698;12291
690;12292
688;12293
687;12294
688;12295
690;12296
693;12297
697;12298
706;12299
712;12300
717;12301
721;12302
726;12303
731;12304
740;12305
744;12306
747;12307
749;12308
752;12309
754;12310
756;12311
758;12312
760;12313
761;12314
762;12315
763;12316
764;12317
766;12318
767;12319
768;12320
769;12321
770;12322
771;12323
771;12324
771;12325
771;12326
769;12327
768;12328
767;12329
765;12330
764;12331
763;12332
763;12333
763;12334
763;12335
763;12336
763;12337
763;12338
763;12339
764;12340
764;12341
762;12342
760;12343
760;12344
759;12345
758;12346
757;12347
755;12348
753;12349
752;12350
750;12351
748;12352
747;12353
746;12354
746;12355
746;12356
746;12357
745;12358
746;12359
746;12360
746;12361
746;12362
746;12363
746;12364
744;12365
741;12366
734;12367
731;12368
728;12369
725;12370
722;12371
721;12372
720;12373
721;12374
722;12375
722;12376
723;12377
724;12378
726;12379
728;12380
729;12381
731;12382
732;12383
732;12384
733;12385
734;12386
734;12387
735;12388
736;12389
736;12390
736;12391
735;12392
735;12393
735;12394
735;12395
736;12396
737;12397
736;12398
735;12399
734;12400
734;12401
734;12402
734;12403
736;12404
737;12405
738;12406
738;12407
739;12408
740;12409
741;12410
743;12411
745;12412
747;12413
749;12414
751;12415
756;12416
758;12417
760;12418
762;12419
763;12420
764;12421
764;12422
764;12423
765;12424
765;12425
765;12426
766;12427
766;12428
767;12429
768;12430
769;12431
770;12432
771;12433
771;12434
769;12435
767;12436
765;12437
763;12438
762;12439
762;12440
760;12441
759;12442
758;12443
757;12444
754;12445
750;12446
742;12447
739;12448
737;12449
736;12450
736;12451
736;12452
736;12453
737;12454
737;12455
737;12456
737;12457
737;12458
738;12459
739;12460
739;12461
739;12462
739;12463
738;12464
737;12465
736;12466
736;12467
735;12468
734;12469
733;12470
731;12471
728;12472
727;12473
726;12474
726;12475
726;12476
727;12477
728;12478
731;12479
734;12480
736;12481
738;12482
741;12483
744;12484
749;12485
750;12486
752;12487
754;12488
755;12489
757;12490
759;12491
759;12492
759;12493
758;12494
757;12495
754;12496
750;12497
748;12498
746;12499
744;12500
743;12501
743;12502
743;12503
745;12504
745;12505
747;12506
747;12507
748;12508
748;12509
746;12510
744;12511
741;12512
739;12513
736;12514
734;12515
732;12516
731;12517
732;12518
731;12519
732;12520
732;12521
734;12522
736;12523
738;12524
740;12525
743;12526
745;12527
748;12528
754;12529
756;12530
757;12531
758;12532
759;12533
760;12534
760;12535
760;12536
759;12537
758;12538
757;12539
756;12540
754;12541
753;12542
753;12543
754;12544
754;12545
754;12546
751;12547
748;12548
745;12549
743;12550
741;12551
739;12552
737;12553
737;12554
737;12555
738;12556
738;12557
738;12558
739;12559
740;12560
742;12561
743;12562
744;12563
745;12564
748;12565
748;12566
749;12567
750;12568
751;12569
753;12570
756;12571
757;12572
758;12573
759;12574
760;12575
761;12576
757;12577
751;12578
746;12579
741;12580
736;12581
732;12582
728;12583
721;12584
718;12585
714;12586
711;12587
708;12588
707;12589
707;12590
709;12591
711;12592
713;12593
715;12594
717;12595
721;12596
723;12597
725;12598
726;12599
729;12600
732;12601
737;12602
740;12603
742;12604
743;12605
744;12606
745;12607
744;12608
744;12609
744;12610
743;12611
743;12612
742;12613
742;12614
740;12615
739;12616
738;12617
737;12618
735;12619
733;12620
731;12621
731;12622
731;12623
732;12624
734;12625
736;12626
741;12627
744;12628
747;12629
750;12630
753;12631
756;12632
761;12633
763;12634
765;12635
766;12636
767;12637
769;12638
770;12639
770;12640
769;12641
768;12642
768;12643
767;12644
767;12645
766;12646
765;12647
764;12648
764;12649
764;12650
764;12651
764;12652
764;12653
765;12654
765;12655
765;12656
764;12657
763;12658
762;12659
761;12660
760;12661
759;12662
758;12663
758;12664
759;12665
758;12666
758;12667
758;12668
759;12669
757;12670
756;12671
756;12672
755;12673
755;12674
755;12675
756;12676
757;12677
758;12678
758;12679
759;12680
761;12681
762;12682
765;12683
766;12684
766;12685
767;12686
767;12687
766;12688
760;12689
757;12690
754;12691
752;12692
750;12693
747;12694
739;12695
731;12696
722;12697
714;12698
707;12699
700;12700
690;12701
687;12702
686;12703
686;12704
687;12705
689;12706
695;12707
700;12708
705;12709
710;12710
715;12711
720;12712
724;12713
733;12714
736;12715
739;12716
741;12717
745;12718
748;12719
753;12720
755;12721
758;12722
761;12723
763;12724
764;12725
766;12726
767;12727
767;12728
767;12729
767;12730
767;12731
768;12732
768;12733
768;12734
767;12735
766;12736
763;12737
760;12738
754;12739
752;12740
750;12741
748;12742
746;12743
745;12744
743;12745
744;12746
744;12747
745;12748
746;12749
747;12750
750;12751
751;12752
752;12753
753;12754
752;12755
752;12756
749;12757
748;12758
748;12759
747;12760
748;12761
749;12762
750;12763
753;12764
754;12765
755;12766
754;12767
753;12768
751;12769
749;12770
747;12771
746;12772
746;12773
746;12774
746;12775
747;12776
748;12777
750;12778
751;12779
753;12780
755;12781
758;12782
760;12783
761;12784
762;12785
764;12786
764;12787
764;12788
764;12789
762;12790
759;12791
755;12792
750;12793
746;12794
738;12795
736;12796
735;12797
735;12798
735;12799
735;12800
738;12801
740;12802
742;12803
744;12804
747;12805
750;12806
755;12807
757;12808
760;12809
762;12810
764;12811
766;12812
768;12813
768;12814
767;12815
766;12816
765;12817
764;12818
761;12819
759;12820
758;12821
757;12822
756;12823
755;12824
750;12825
746;12826
742;12827
738;12828
735;12829
732;12830
728;12831
723;12832
720;12833
718;12834
716;12835
714;12836
713;12837
713;12838
713;12839
713;12840
713;12841
714;12842
715;12843
719;12844
720;12845
722;12846
725;12847
728;12848
731;12849
735;12850
741;12851
745;12852
748;12853
751;12854
754;12855
756;12856
760;12857
762;12858
764;12859
764;12860
766;12861
767;12862
769;12863
770;12864
770;12865
770;12866
769;12867
768;12868
767;12869
765;12870
765;12871
763;12872
762;12873
760;12874
754;12875
750;12876
747;12877
745;12878
743;12879
742;12880
741;12881
742;12882
742;12883
742;12884
741;12885
742;12886
742;12887
743;12888
745;12889
746;12890
747;12891
748;12892
749;12893
750;12894
751;12895
753;12896
754;12897
756;12898
758;12899
761;12900
763;12901
764;12902
765;12903
766;12904
766;12905
767;12906
769;12907
770;12908
770;12909
770;12910
770;12911
770;12912
769;12913
768;12914
767;12915
766;12916
765;12917
764;12918
764;12919
764;12920
764;12921
764;12922
765;12923
765;12924
765;12925
765;12926
765;12927
765;12928
764;12929
764;12930
763;12931
761;12932
760;12933
759;12934
758;12935
757;12936
755;12937
752;12938
751;12939
750;12940
749;12941
748;12942
748;12943
749;12944
750;12945
750;12946
751;12947
752;12948
752;12949
754;12950
755;12951
756;12952
757;12953
757;12954
759;12955
760;12956
761;12957
763;12958
763;12959
764;12960
765;12961
766;12962
768;12963
769;12964
769;12965
769;12966
769;12967
770;12968
771;12969
770;12970
770;12971
769;12972
768;12973
768;12974
766;12975
765;12976
763;12977
761;12978
757;12979
754;12980
747;12981
743;12982
740;12983
737;12984
734;12985
732;12986
725;12987
720;12988
716;12989
712;12990
709;12991
707;12992
707;12993
707;12994
707;12995
709;12996
710;12997
712;12998
713;12999
718;13000
722;13001
725;13002
728;13003
731;13004
734;13005
739;13006
740;13007
740;13008
739;13009
739;13010
739;13011
739;13012
740;13013
741;13014
740;13015
740;13016
740;13017
740;13018
741;13019
742;13020
742;13021
743;13022
744;13023
745;13024
746;13025
747;13026
748;13027
749;13028
750;13029
752;13030
753;13031
753;13032
753;13033
752;13034
750;13035
748;13036
745;13037
744;13038
744;13039
744;13040
743;13041
744;13042
743;13043
742;13044
742;13045
741;13046
742;13047
743;13048
744;13049
747;13050
748;13051
750;13052
751;13053
753;13054
753;13055
753;13056
754;13057
754;13058
754;13059
754;13060
754;13061
756;13062
757;13063
758;13064
758;13065
759;13066
759;13067
760;13068
760;13069
760;13070
759;13071
758;13072
757;13073
755;13074
753;13075
752;13076
750;13077
748;13078
746;13079
742;13080
735;13081
732;13082
730;13083
728;13084
726;13085
725;13086
725;13087
726;13088
726;13089
727;13090
728;13091
729;13092
733;13093
734;13094
736;13095
738;13096
739;13097
741;13098
745;13099
747;13100
748;13101
750;13102
752;13103
754;13104
755;13105
758;13106
758;13107
759;13108
759;13109
